Results:

Channel 1:
Segment 1:

Segment 2:

Potential/V, Current/A

0.000, 1.357e-9
0.001, 1.257e-9
0.002, 1.185e-9
0.003, 1.129e-9
0.004, 1.080e-9
0.005, 1.034e-9
0.006, 9.924e-10
0.007, 9.519e-10
0.008, 9.158e-10
0.009, 8.797e-10
0.010, 8.438e-10
0.011, 8.106e-10
0.012, 7.771e-10
0.013, 7.466e-10
0.014, 7.142e-10
0.015, 6.829e-10
0.016, 6.558e-10
0.017, 6.258e-10
0.018, 5.977e-10
0.019, 5.706e-10
0.020, 5.425e-10
0.021, 5.176e-10
0.022, 4.906e-10
0.023, 4.649e-10
0.024, 4.404e-10
0.025, 4.147e-10
0.026, 3.920e-10
0.027, 3.667e-10
0.028, 3.439e-10
0.029, 3.222e-10
0.030, 2.981e-10
0.031, 2.765e-10
0.032, 2.534e-10
0.033, 2.304e-10
0.034, 2.103e-10
0.035, 1.888e-10
0.036, 1.674e-10
0.037, 1.475e-10
0.038, 1.286e-10
0.039, 1.074e-10
0.040, 8.746e-11
0.041, 6.853e-11
0.042, 4.903e-11
0.043, 3.059e-11
0.044, 1.177e-11
0.045, -7.427e-12
0.046, -2.579e-11
0.047, -4.430e-11
0.048, -6.056e-11
0.049, -7.841e-11
0.050, -9.541e-11
0.051, -1.124e-10
0.052, -1.314e-10
0.053, -1.468e-10
0.054, -1.637e-10
0.055, -1.806e-10
0.056, -1.956e-10
0.057, -2.124e-10
0.058, -2.284e-10
0.059, -2.437e-10
0.060, -2.601e-10
0.061, -2.744e-10
0.062, -2.906e-10
0.063, -3.051e-10
0.064, -3.199e-10
0.065, -3.352e-10
0.066, -3.491e-10
0.067, -3.649e-10
0.068, -3.793e-10
0.069, -3.911e-10
0.070, -4.072e-10
0.071, -4.203e-10
0.072, -4.341e-10
0.073, -4.483e-10
0.074, -4.617e-10
0.075, -4.755e-10
0.076, -4.890e-10
0.077, -5.032e-10
0.078, -5.150e-10
0.079, -5.292e-10
0.080, -5.428e-10
0.081, -5.550e-10
0.082, -5.674e-10
0.083, -5.806e-10
0.084, -5.934e-10
0.085, -6.054e-10
0.086, -6.175e-10
0.087, -6.311e-10
0.088, -6.420e-10
0.089, -6.559e-10
0.090, -6.671e-10
0.091, -6.778e-10
0.092, -6.914e-10
0.093, -7.028e-10
0.094, -7.146e-10
0.095, -7.271e-10
0.096, -7.374e-10
0.097, -7.497e-10
0.098, -7.611e-10
0.099, -7.726e-10
0.100, -7.847e-10
0.101, -7.952e-10
0.102, -8.094e-10
0.103, -8.195e-10
0.104, -8.305e-10
0.105, -8.433e-10
0.106, -8.529e-10
0.107, -8.650e-10
0.108, -8.768e-10
0.109, -8.875e-10
0.110, -9.004e-10
0.111, -9.106e-10
0.112, -9.226e-10
0.113, -9.339e-10
0.114, -9.453e-10
0.115, -9.569e-10
0.116, -9.685e-10
0.117, -9.802e-10
0.118, -9.913e-10
0.119, -1.003e-9
0.120, -1.015e-9
0.121, -1.026e-9
0.122, -1.038e-9
0.123, -1.050e-9
0.124, -1.062e-9
0.125, -1.073e-9
0.126, -1.085e-9
0.127, -1.098e-9
0.128, -1.108e-9
0.129, -1.121e-9
0.130, -1.134e-9
0.131, -1.146e-9
0.132, -1.160e-9
0.133, -1.171e-9
0.134, -1.185e-9
0.135, -1.198e-9
0.136, -1.210e-9
0.137, -1.225e-9
0.138, -1.236e-9
0.139, -1.250e-9
0.140, -1.265e-9
0.141, -1.278e-9
0.142, -1.294e-9
0.143, -1.308e-9
0.144, -1.322e-9
0.145, -1.337e-9
0.146, -1.350e-9
0.147, -1.366e-9
0.148, -1.382e-9
0.149, -1.396e-9
0.150, -1.412e-9
0.151, -1.428e-9
0.152, -1.445e-9
0.153, -1.461e-9
0.154, -1.479e-9
0.155, -1.496e-9
0.156, -1.512e-9
0.157, -1.529e-9
0.158, -1.546e-9
0.159, -1.564e-9
0.160, -1.584e-9
0.161, -1.603e-9
0.162, -1.622e-9
0.163, -1.641e-9
0.164, -1.661e-9
0.165, -1.679e-9
0.166, -1.699e-9
0.167, -1.722e-9
0.168, -1.740e-9
0.169, -1.762e-9
0.170, -1.785e-9
0.171, -1.805e-9
0.172, -1.828e-9
0.173, -1.851e-9
0.174, -1.875e-9
0.175, -1.896e-9
0.176, -1.919e-9
0.177, -1.945e-9
0.178, -1.964e-9
0.179, -1.990e-9
0.180, -2.016e-9
0.181, -2.040e-9
0.182, -2.069e-9
0.183, -2.095e-9
0.184, -2.118e-9
0.185, -2.145e-9
0.186, -2.169e-9
0.187, -2.195e-9
0.188, -2.224e-9
0.189, -2.252e-9
0.190, -2.279e-9
0.191, -2.307e-9
0.192, -2.336e-9
0.193, -2.359e-9
0.194, -2.384e-9
0.195, -2.417e-9
0.196, -2.445e-9
0.197, -2.470e-9
0.198, -2.502e-9
0.199, -2.528e-9
0.200, -2.552e-9
0.201, -2.582e-9
0.202, -2.610e-9
0.203, -2.637e-9
0.204, -2.670e-9
0.205, -2.697e-9
0.206, -2.717e-9
0.207, -2.751e-9
0.208, -2.778e-9
0.209, -2.800e-9
0.210, -2.828e-9
0.211, -2.858e-9
0.212, -2.879e-9
0.213, -2.907e-9
0.214, -2.940e-9
0.215, -2.958e-9
0.216, -2.982e-9
0.217, -3.013e-9
0.218, -3.031e-9
0.219, -3.050e-9
0.220, -3.076e-9
0.221, -3.094e-9
0.222, -3.123e-9
0.223, -3.152e-9
0.224, -3.170e-9
0.225, -3.191e-9
0.226, -3.214e-9
0.227, -3.230e-9
0.228, -3.243e-9
0.229, -3.264e-9
0.230, -3.285e-9
0.231, -3.306e-9
0.232, -3.327e-9
0.233, -3.338e-9
0.234, -3.353e-9
0.235, -3.380e-9
0.236, -3.394e-9
0.237, -3.403e-9
0.238, -3.422e-9
0.239, -3.434e-9
0.240, -3.440e-9
0.241, -3.464e-9
0.242, -3.482e-9
0.243, -3.485e-9
0.244, -3.508e-9
0.245, -3.525e-9
0.246, -3.520e-9
0.247, -3.530e-9
0.248, -3.553e-9
0.249, -3.558e-9
0.250, -3.561e-9
0.251, -3.583e-9
0.252, -3.595e-9
0.253, -3.592e-9
0.254, -3.602e-9
0.255, -3.617e-9
0.256, -3.622e-9
0.257, -3.636e-9
0.258, -3.643e-9
0.259, -3.644e-9
0.260, -3.653e-9
0.261, -3.666e-9
0.262, -3.668e-9
0.263, -3.671e-9
0.264, -3.678e-9
0.265, -3.685e-9
0.266, -3.698e-9
0.267, -3.704e-9
0.268, -3.698e-9
0.269, -3.708e-9
0.270, -3.722e-9
0.271, -3.715e-9
0.272, -3.712e-9
0.273, -3.724e-9
0.274, -3.728e-9
0.275, -3.737e-9
0.276, -3.747e-9
0.277, -3.743e-9
0.278, -3.741e-9
0.279, -3.758e-9
0.280, -3.753e-9
0.281, -3.744e-9
0.282, -3.762e-9
0.283, -3.770e-9
0.284, -3.766e-9
0.285, -3.771e-9
0.286, -3.779e-9
0.287, -3.778e-9
0.288, -3.781e-9
0.289, -3.778e-9
0.290, -3.773e-9
0.291, -3.787e-9
0.292, -3.798e-9
0.293, -3.786e-9
0.294, -3.798e-9
0.295, -3.810e-9
0.296, -3.800e-9
0.297, -3.802e-9
0.298, -3.804e-9
0.299, -3.794e-9
0.300, -3.802e-9
0.301, -3.824e-9
0.302, -3.824e-9
0.303, -3.815e-9
0.304, -3.814e-9
0.305, -3.819e-9
0.306, -3.819e-9
0.307, -3.824e-9
0.308, -3.827e-9
0.309, -3.834e-9
0.310, -3.838e-9
0.311, -3.826e-9
0.312, -3.827e-9
0.313, -3.841e-9
0.314, -3.840e-9
0.315, -3.831e-9
0.316, -3.836e-9
0.317, -3.843e-9
0.318, -3.852e-9
0.319, -3.852e-9
0.320, -3.846e-9
0.321, -3.847e-9
0.322, -3.859e-9
0.323, -3.858e-9
0.324, -3.853e-9
0.325, -3.859e-9
0.326, -3.863e-9
0.327, -3.859e-9
0.328, -3.865e-9
0.329, -3.875e-9
0.330, -3.867e-9
0.331, -3.870e-9
0.332, -3.879e-9
0.333, -3.867e-9
0.334, -3.865e-9
0.335, -3.886e-9
0.336, -3.891e-9
0.337, -3.876e-9
0.338, -3.872e-9
0.339, -3.888e-9
0.340, -3.890e-9
0.341, -3.882e-9
0.342, -3.887e-9
0.343, -3.897e-9
0.344, -3.904e-9
0.345, -3.899e-9
0.346, -3.892e-9
0.347, -3.896e-9
0.348, -3.899e-9
0.349, -3.900e-9
0.350, -3.907e-9
0.351, -3.913e-9
0.352, -3.916e-9
0.353, -3.923e-9
0.354, -3.917e-9
0.355, -3.900e-9
0.356, -3.906e-9
0.357, -3.932e-9
0.358, -3.926e-9
0.359, -3.913e-9
0.360, -3.923e-9
0.361, -3.934e-9
0.362, -3.930e-9
0.363, -3.926e-9
0.364, -3.932e-9
0.365, -3.940e-9
0.366, -3.940e-9
0.367, -3.932e-9
0.368, -3.930e-9
0.369, -3.947e-9
0.370, -3.952e-9
0.371, -3.946e-9
0.372, -3.952e-9
0.373, -3.950e-9
0.374, -3.945e-9
0.375, -3.954e-9
0.376, -3.955e-9
0.377, -3.946e-9
0.378, -3.955e-9
0.379, -3.968e-9
0.380, -3.960e-9
0.381, -3.956e-9
0.382, -3.975e-9
0.383, -3.973e-9
0.384, -3.964e-9
0.385, -3.969e-9
0.386, -3.975e-9
0.387, -3.975e-9
0.388, -3.978e-9
0.389, -3.979e-9
0.390, -3.976e-9
0.391, -3.983e-9
0.392, -3.990e-9
0.393, -3.982e-9
0.394, -3.980e-9
0.395, -3.990e-9
0.396, -3.996e-9
0.397, -3.994e-9
0.398, -3.985e-9
0.399, -3.989e-9
0.400, -3.933e-9
0.399, -3.741e-9
0.398, -3.608e-9
0.397, -3.512e-9
0.396, -3.443e-9
0.395, -3.371e-9
0.394, -3.303e-9
0.393, -3.241e-9
0.392, -3.180e-9
0.391, -3.126e-9
0.390, -3.073e-9
0.389, -3.016e-9
0.388, -2.976e-9
0.387, -2.941e-9
0.386, -2.887e-9
0.385, -2.833e-9
0.384, -2.797e-9
0.383, -2.759e-9
0.382, -2.711e-9
0.381, -2.675e-9
0.380, -2.640e-9
0.379, -2.606e-9
0.378, -2.581e-9
0.377, -2.543e-9
0.376, -2.492e-9
0.375, -2.459e-9
0.374, -2.442e-9
0.373, -2.413e-9
0.372, -2.369e-9
0.371, -2.337e-9
0.370, -2.314e-9
0.369, -2.285e-9
0.368, -2.244e-9
0.367, -2.216e-9
0.366, -2.204e-9
0.365, -2.174e-9
0.364, -2.135e-9
0.363, -2.107e-9
0.362, -2.080e-9
0.361, -2.047e-9
0.360, -2.030e-9
0.359, -2.017e-9
0.358, -1.988e-9
0.357, -1.955e-9
0.356, -1.932e-9
0.355, -1.904e-9
0.354, -1.877e-9
0.353, -1.862e-9
0.352, -1.849e-9
0.351, -1.826e-9
0.350, -1.793e-9
0.349, -1.766e-9
0.348, -1.748e-9
0.347, -1.731e-9
0.346, -1.703e-9
0.345, -1.682e-9
0.344, -1.669e-9
0.343, -1.653e-9
0.342, -1.626e-9
0.341, -1.599e-9
0.340, -1.577e-9
0.339, -1.557e-9
0.338, -1.543e-9
0.337, -1.527e-9
0.336, -1.507e-9
0.335, -1.489e-9
0.334, -1.476e-9
0.333, -1.451e-9
0.332, -1.418e-9
0.331, -1.409e-9
0.330, -1.402e-9
0.329, -1.380e-9
0.328, -1.356e-9
0.327, -1.343e-9
0.326, -1.326e-9
0.325, -1.304e-9
0.324, -1.287e-9
0.323, -1.272e-9
0.322, -1.253e-9
0.321, -1.235e-9
0.320, -1.214e-9
0.319, -1.196e-9
0.318, -1.184e-9
0.317, -1.169e-9
0.316, -1.155e-9
0.315, -1.138e-9
0.314, -1.118e-9
0.313, -1.109e-9
0.312, -1.093e-9
0.311, -1.066e-9
0.310, -1.048e-9
0.309, -1.042e-9
0.308, -1.026e-9
0.307, -1.006e-9
0.306, -9.954e-10
0.305, -9.790e-10
0.304, -9.598e-10
0.303, -9.496e-10
0.302, -9.282e-10
0.301, -9.051e-10
0.300, -8.909e-10
0.299, -8.797e-10
0.298, -8.602e-10
0.297, -8.421e-10
0.296, -8.332e-10
0.295, -8.215e-10
0.294, -8.083e-10
0.293, -7.870e-10
0.292, -7.582e-10
0.291, -7.483e-10
0.290, -7.385e-10
0.289, -7.156e-10
0.288, -7.050e-10
0.287, -7.045e-10
0.286, -6.862e-10
0.285, -6.563e-10
0.284, -6.371e-10
0.283, -6.227e-10
0.282, -6.004e-10
0.281, -5.837e-10
0.280, -5.704e-10
0.279, -5.519e-10
0.278, -5.381e-10
0.277, -5.228e-10
0.276, -4.988e-10
0.275, -4.758e-10
0.274, -4.552e-10
0.273, -4.444e-10
0.272, -4.314e-10
0.271, -4.075e-10
0.270, -3.821e-10
0.269, -3.679e-10
0.268, -3.524e-10
0.267, -3.270e-10
0.266, -3.083e-10
0.265, -2.935e-10
0.264, -2.663e-10
0.263, -2.429e-10
0.262, -2.280e-10
0.261, -2.028e-10
0.260, -1.796e-10
0.259, -1.595e-10
0.258, -1.342e-10
0.257, -1.106e-10
0.256, -9.958e-11
0.255, -7.681e-11
0.254, -4.270e-11
0.253, -1.723e-11
0.252, -2.559e-12
0.251, 2.043e-11
0.250, 4.915e-11
0.249, 7.296e-11
0.248, 9.737e-11
0.247, 1.200e-10
0.246, 1.453e-10
0.245, 1.790e-10
0.244, 2.037e-10
0.243, 2.212e-10
0.242, 2.516e-10
0.241, 2.800e-10
0.240, 3.044e-10
0.239, 3.364e-10
0.238, 3.655e-10
0.237, 3.901e-10
0.236, 4.196e-10
0.235, 4.539e-10
0.234, 4.798e-10
0.233, 5.028e-10
0.232, 5.341e-10
0.231, 5.640e-10
0.230, 5.887e-10
0.229, 6.200e-10
0.228, 6.544e-10
0.227, 6.854e-10
0.226, 7.079e-10
0.225, 7.330e-10
0.224, 7.671e-10
0.223, 7.991e-10
0.222, 8.247e-10
0.221, 8.538e-10
0.220, 8.865e-10
0.219, 9.128e-10
0.218, 9.414e-10
0.217, 9.730e-10
0.216, 9.969e-10
0.215, 1.024e-9
0.214, 1.057e-9
0.213, 1.084e-9
0.212, 1.108e-9
0.211, 1.138e-9
0.210, 1.172e-9
0.209, 1.194e-9
0.208, 1.216e-9
0.207, 1.247e-9
0.206, 1.273e-9
0.205, 1.299e-9
0.204, 1.326e-9
0.203, 1.349e-9
0.202, 1.375e-9
0.201, 1.396e-9
0.200, 1.419e-9
0.199, 1.443e-9
0.198, 1.464e-9
0.197, 1.488e-9
0.196, 1.508e-9
0.195, 1.529e-9
0.194, 1.549e-9
0.193, 1.569e-9
0.192, 1.592e-9
0.191, 1.611e-9
0.190, 1.629e-9
0.189, 1.649e-9
0.188, 1.667e-9
0.187, 1.684e-9
0.186, 1.701e-9
0.185, 1.719e-9
0.184, 1.736e-9
0.183, 1.751e-9
0.182, 1.767e-9
0.181, 1.780e-9
0.180, 1.796e-9
0.179, 1.810e-9
0.178, 1.826e-9
0.177, 1.839e-9
0.176, 1.851e-9
0.175, 1.865e-9
0.174, 1.875e-9
0.173, 1.888e-9
0.172, 1.900e-9
0.171, 1.910e-9
0.170, 1.922e-9
0.169, 1.934e-9
0.168, 1.942e-9
0.167, 1.952e-9
0.166, 1.961e-9
0.165, 1.971e-9
0.164, 1.982e-9
0.163, 1.989e-9
0.162, 2.000e-9
0.161, 2.007e-9
0.160, 2.016e-9
0.159, 2.023e-9
0.158, 2.029e-9
0.157, 2.039e-9
0.156, 2.047e-9
0.155, 2.054e-9
0.154, 2.060e-9
0.153, 2.065e-9
0.152, 2.074e-9
0.151, 2.080e-9
0.150, 2.085e-9
0.149, 2.091e-9
0.148, 2.096e-9
0.147, 2.102e-9
0.146, 2.108e-9
0.145, 2.115e-9
0.144, 2.122e-9
0.143, 2.129e-9
0.142, 2.133e-9
0.141, 2.137e-9
0.140, 2.142e-9
0.139, 2.149e-9
0.138, 2.154e-9
0.137, 2.160e-9
0.136, 2.164e-9
0.135, 2.169e-9
0.134, 2.174e-9
0.133, 2.180e-9
0.132, 2.186e-9
0.131, 2.189e-9
0.130, 2.197e-9
0.129, 2.202e-9
0.128, 2.205e-9
0.127, 2.213e-9
0.126, 2.217e-9
0.125, 2.220e-9
0.124, 2.224e-9
0.123, 2.227e-9
0.122, 2.233e-9
0.121, 2.238e-9
0.120, 2.243e-9
0.119, 2.246e-9
0.118, 2.249e-9
0.117, 2.255e-9
0.116, 2.258e-9
0.115, 2.263e-9
0.114, 2.268e-9
0.113, 2.271e-9
0.112, 2.278e-9
0.111, 2.282e-9
0.110, 2.285e-9
0.109, 2.291e-9
0.108, 2.297e-9
0.107, 2.300e-9
0.106, 2.303e-9
0.105, 2.309e-9
0.104, 2.314e-9
0.103, 2.319e-9
0.102, 2.325e-9
0.101, 2.328e-9
0.100, 2.332e-9
0.099, 2.337e-9
0.098, 2.343e-9
0.097, 2.348e-9
0.096, 2.352e-9
0.095, 2.358e-9
0.094, 2.361e-9
0.093, 2.367e-9
0.092, 2.373e-9
0.091, 2.374e-9
0.090, 2.381e-9
0.089, 2.386e-9
0.088, 2.390e-9
0.087, 2.397e-9
0.086, 2.399e-9
0.085, 2.405e-9
0.084, 2.411e-9
0.083, 2.416e-9
0.082, 2.423e-9
0.081, 2.426e-9
0.080, 2.432e-9
0.079, 2.436e-9
0.078, 2.441e-9
0.077, 2.448e-9
0.076, 2.452e-9
0.075, 2.457e-9
0.074, 2.464e-9
0.073, 2.469e-9
0.072, 2.474e-9
0.071, 2.478e-9
0.070, 2.483e-9
0.069, 2.489e-9
0.068, 2.496e-9
0.067, 2.502e-9
0.066, 2.505e-9
0.065, 2.511e-9
0.064, 2.518e-9
0.063, 2.523e-9
0.062, 2.527e-9
0.061, 2.534e-9
0.060, 2.540e-9
0.059, 2.544e-9
0.058, 2.550e-9
0.057, 2.556e-9
0.056, 2.559e-9
0.055, 2.567e-9
0.054, 2.572e-9
0.053, 2.578e-9
0.052, 2.585e-9
0.051, 2.589e-9
0.050, 2.595e-9
0.049, 2.600e-9
0.048, 2.606e-9
0.047, 2.614e-9
0.046, 2.619e-9
0.045, 2.626e-9
0.044, 2.630e-9
0.043, 2.635e-9
0.042, 2.642e-9
0.041, 2.646e-9
0.040, 2.652e-9
0.039, 2.658e-9
0.038, 2.664e-9
0.037, 2.669e-9
0.036, 2.674e-9
0.035, 2.681e-9
0.034, 2.686e-9
0.033, 2.691e-9
0.032, 2.698e-9
0.031, 2.702e-9
0.030, 2.706e-9
0.029, 2.713e-9
0.028, 2.718e-9
0.027, 2.723e-9
0.026, 2.728e-9
0.025, 2.735e-9
0.024, 2.739e-9
0.023, 2.745e-9
0.022, 2.751e-9
0.021, 2.756e-9
0.020, 2.763e-9
0.019, 2.767e-9
0.018, 2.772e-9
0.017, 2.778e-9
0.016, 2.781e-9
0.015, 2.788e-9
0.014, 2.792e-9
0.013, 2.798e-9
0.012, 2.805e-9
0.011, 2.810e-9
0.010, 2.816e-9
0.009, 2.820e-9
0.008, 2.827e-9
0.007, 2.834e-9
0.006, 2.837e-9
0.005, 2.843e-9
0.004, 2.850e-9
0.003, 2.856e-9
0.002, 2.861e-9
0.001, 2.865e-9
