Results:

Channel 1:
Segment 1:

Segment 2:

Potential/V, Current/A

0.000, 9.113e-10
0.001, 8.462e-10
0.002, 7.805e-10
0.003, 7.219e-10
0.004, 6.704e-10
0.005, 6.241e-10
0.006, 5.816e-10
0.007, 5.424e-10
0.008, 5.049e-10
0.009, 4.698e-10
0.010, 4.356e-10
0.011, 4.029e-10
0.012, 3.719e-10
0.013, 3.412e-10
0.014, 3.117e-10
0.015, 2.834e-10
0.016, 2.557e-10
0.017, 2.286e-10
0.018, 2.020e-10
0.019, 1.764e-10
0.020, 1.508e-10
0.021, 1.263e-10
0.022, 1.023e-10
0.023, 7.793e-11
0.024, 5.467e-11
0.025, 3.128e-11
0.026, 8.885e-12
0.027, -1.331e-11
0.028, -3.514e-11
0.029, -5.590e-11
0.030, -7.713e-11
0.031, -9.761e-11
0.032, -1.176e-10
0.033, -1.379e-10
0.034, -1.572e-10
0.035, -1.771e-10
0.036, -1.963e-10
0.037, -2.144e-10
0.038, -2.332e-10
0.039, -2.511e-10
0.040, -2.695e-10
0.041, -2.874e-10
0.042, -3.044e-10
0.043, -3.221e-10
0.044, -3.390e-10
0.045, -3.558e-10
0.046, -3.727e-10
0.047, -3.885e-10
0.048, -4.048e-10
0.049, -4.205e-10
0.050, -4.363e-10
0.051, -4.518e-10
0.052, -4.673e-10
0.053, -4.825e-10
0.054, -4.973e-10
0.055, -5.125e-10
0.056, -5.270e-10
0.057, -5.415e-10
0.058, -5.559e-10
0.059, -5.698e-10
0.060, -5.845e-10
0.061, -5.979e-10
0.062, -6.113e-10
0.063, -6.250e-10
0.064, -6.374e-10
0.065, -6.511e-10
0.066, -6.645e-10
0.067, -6.774e-10
0.068, -6.907e-10
0.069, -7.028e-10
0.070, -7.156e-10
0.071, -7.279e-10
0.072, -7.399e-10
0.073, -7.526e-10
0.074, -7.644e-10
0.075, -7.765e-10
0.076, -7.885e-10
0.077, -7.998e-10
0.078, -8.122e-10
0.079, -8.234e-10
0.080, -8.350e-10
0.081, -8.467e-10
0.082, -8.574e-10
0.083, -8.690e-10
0.084, -8.800e-10
0.085, -8.909e-10
0.086, -9.020e-10
0.087, -9.126e-10
0.088, -9.237e-10
0.089, -9.345e-10
0.090, -9.455e-10
0.091, -9.561e-10
0.092, -9.667e-10
0.093, -9.772e-10
0.094, -9.879e-10
0.095, -9.987e-10
0.096, -1.009e-9
0.097, -1.020e-9
0.098, -1.030e-9
0.099, -1.040e-9
0.100, -1.051e-9
0.101, -1.061e-9
0.102, -1.072e-9
0.103, -1.083e-9
0.104, -1.093e-9
0.105, -1.104e-9
0.106, -1.114e-9
0.107, -1.124e-9
0.108, -1.135e-9
0.109, -1.144e-9
0.110, -1.155e-9
0.111, -1.166e-9
0.112, -1.176e-9
0.113, -1.187e-9
0.114, -1.197e-9
0.115, -1.208e-9
0.116, -1.219e-9
0.117, -1.229e-9
0.118, -1.241e-9
0.119, -1.251e-9
0.120, -1.262e-9
0.121, -1.273e-9
0.122, -1.284e-9
0.123, -1.296e-9
0.124, -1.307e-9
0.125, -1.319e-9
0.126, -1.331e-9
0.127, -1.343e-9
0.128, -1.355e-9
0.129, -1.368e-9
0.130, -1.380e-9
0.131, -1.392e-9
0.132, -1.404e-9
0.133, -1.417e-9
0.134, -1.430e-9
0.135, -1.443e-9
0.136, -1.457e-9
0.137, -1.471e-9
0.138, -1.484e-9
0.139, -1.498e-9
0.140, -1.512e-9
0.141, -1.527e-9
0.142, -1.542e-9
0.143, -1.557e-9
0.144, -1.572e-9
0.145, -1.588e-9
0.146, -1.604e-9
0.147, -1.620e-9
0.148, -1.637e-9
0.149, -1.653e-9
0.150, -1.671e-9
0.151, -1.688e-9
0.152, -1.706e-9
0.153, -1.725e-9
0.154, -1.743e-9
0.155, -1.763e-9
0.156, -1.782e-9
0.157, -1.802e-9
0.158, -1.823e-9
0.159, -1.844e-9
0.160, -1.865e-9
0.161, -1.886e-9
0.162, -1.907e-9
0.163, -1.930e-9
0.164, -1.952e-9
0.165, -1.976e-9
0.166, -2.000e-9
0.167, -2.024e-9
0.168, -2.049e-9
0.169, -2.074e-9
0.170, -2.100e-9
0.171, -2.125e-9
0.172, -2.152e-9
0.173, -2.179e-9
0.174, -2.207e-9
0.175, -2.234e-9
0.176, -2.262e-9
0.177, -2.292e-9
0.178, -2.321e-9
0.179, -2.350e-9
0.180, -2.381e-9
0.181, -2.412e-9
0.182, -2.442e-9
0.183, -2.474e-9
0.184, -2.505e-9
0.185, -2.538e-9
0.186, -2.571e-9
0.187, -2.604e-9
0.188, -2.637e-9
0.189, -2.670e-9
0.190, -2.705e-9
0.191, -2.738e-9
0.192, -2.772e-9
0.193, -2.808e-9
0.194, -2.842e-9
0.195, -2.877e-9
0.196, -2.912e-9
0.197, -2.947e-9
0.198, -2.983e-9
0.199, -3.019e-9
0.200, -3.054e-9
0.201, -3.089e-9
0.202, -3.124e-9
0.203, -3.160e-9
0.204, -3.195e-9
0.205, -3.231e-9
0.206, -3.266e-9
0.207, -3.300e-9
0.208, -3.335e-9
0.209, -3.369e-9
0.210, -3.403e-9
0.211, -3.436e-9
0.212, -3.470e-9
0.213, -3.503e-9
0.214, -3.536e-9
0.215, -3.568e-9
0.216, -3.599e-9
0.217, -3.631e-9
0.218, -3.661e-9
0.219, -3.691e-9
0.220, -3.721e-9
0.221, -3.750e-9
0.222, -3.780e-9
0.223, -3.807e-9
0.224, -3.834e-9
0.225, -3.862e-9
0.226, -3.887e-9
0.227, -3.912e-9
0.228, -3.938e-9
0.229, -3.962e-9
0.230, -3.986e-9
0.231, -4.008e-9
0.232, -4.030e-9
0.233, -4.053e-9
0.234, -4.074e-9
0.235, -4.094e-9
0.236, -4.113e-9
0.237, -4.131e-9
0.238, -4.150e-9
0.239, -4.168e-9
0.240, -4.185e-9
0.241, -4.200e-9
0.242, -4.215e-9
0.243, -4.232e-9
0.244, -4.246e-9
0.245, -4.260e-9
0.246, -4.273e-9
0.247, -4.285e-9
0.248, -4.297e-9
0.249, -4.309e-9
0.250, -4.321e-9
0.251, -4.332e-9
0.252, -4.342e-9
0.253, -4.352e-9
0.254, -4.359e-9
0.255, -4.367e-9
0.256, -4.377e-9
0.257, -4.386e-9
0.258, -4.395e-9
0.259, -4.403e-9
0.260, -4.409e-9
0.261, -4.414e-9
0.262, -4.419e-9
0.263, -4.426e-9
0.264, -4.431e-9
0.265, -4.437e-9
0.266, -4.441e-9
0.267, -4.443e-9
0.268, -4.449e-9
0.269, -4.454e-9
0.270, -4.458e-9
0.271, -4.460e-9
0.272, -4.462e-9
0.273, -4.467e-9
0.274, -4.471e-9
0.275, -4.474e-9
0.276, -4.475e-9
0.277, -4.476e-9
0.278, -4.480e-9
0.279, -4.481e-9
0.280, -4.481e-9
0.281, -4.483e-9
0.282, -4.486e-9
0.283, -4.487e-9
0.284, -4.488e-9
0.285, -4.489e-9
0.286, -4.490e-9
0.287, -4.490e-9
0.288, -4.491e-9
0.289, -4.492e-9
0.290, -4.495e-9
0.291, -4.497e-9
0.292, -4.497e-9
0.293, -4.498e-9
0.294, -4.498e-9
0.295, -4.497e-9
0.296, -4.497e-9
0.297, -4.499e-9
0.298, -4.499e-9
0.299, -4.500e-9
0.300, -4.504e-9
0.301, -4.502e-9
0.302, -4.499e-9
0.303, -4.499e-9
0.304, -4.501e-9
0.305, -4.502e-9
0.306, -4.502e-9
0.307, -4.502e-9
0.308, -4.503e-9
0.309, -4.503e-9
0.310, -4.503e-9
0.311, -4.502e-9
0.312, -4.504e-9
0.313, -4.506e-9
0.314, -4.505e-9
0.315, -4.504e-9
0.316, -4.504e-9
0.317, -4.504e-9
0.318, -4.506e-9
0.319, -4.506e-9
0.320, -4.505e-9
0.321, -4.506e-9
0.322, -4.507e-9
0.323, -4.506e-9
0.324, -4.506e-9
0.325, -4.507e-9
0.326, -4.507e-9
0.327, -4.507e-9
0.328, -4.508e-9
0.329, -4.508e-9
0.330, -4.508e-9
0.331, -4.509e-9
0.332, -4.510e-9
0.333, -4.510e-9
0.334, -4.513e-9
0.335, -4.515e-9
0.336, -4.513e-9
0.337, -4.512e-9
0.338, -4.513e-9
0.339, -4.515e-9
0.340, -4.517e-9
0.341, -4.517e-9
0.342, -4.517e-9
0.343, -4.519e-9
0.344, -4.520e-9
0.345, -4.520e-9
0.346, -4.519e-9
0.347, -4.522e-9
0.348, -4.525e-9
0.349, -4.523e-9
0.350, -4.524e-9
0.351, -4.525e-9
0.352, -4.527e-9
0.353, -4.529e-9
0.354, -4.529e-9
0.355, -4.529e-9
0.356, -4.531e-9
0.357, -4.533e-9
0.358, -4.533e-9
0.359, -4.533e-9
0.360, -4.535e-9
0.361, -4.535e-9
0.362, -4.536e-9
0.363, -4.538e-9
0.364, -4.540e-9
0.365, -4.543e-9
0.366, -4.544e-9
0.367, -4.543e-9
0.368, -4.544e-9
0.369, -4.549e-9
0.370, -4.550e-9
0.371, -4.549e-9
0.372, -4.550e-9
0.373, -4.553e-9
0.374, -4.554e-9
0.375, -4.556e-9
0.376, -4.556e-9
0.377, -4.556e-9
0.378, -4.559e-9
0.379, -4.561e-9
0.380, -4.560e-9
0.381, -4.562e-9
0.382, -4.568e-9
0.383, -4.569e-9
0.384, -4.568e-9
0.385, -4.568e-9
0.386, -4.570e-9
0.387, -4.574e-9
0.388, -4.578e-9
0.389, -4.577e-9
0.390, -4.577e-9
0.391, -4.580e-9
0.392, -4.582e-9
0.393, -4.583e-9
0.394, -4.585e-9
0.395, -4.588e-9
0.396, -4.588e-9
0.397, -4.590e-9
0.398, -4.593e-9
0.399, -4.595e-9
0.400, -4.596e-9
0.401, -4.597e-9
0.402, -4.600e-9
0.403, -4.602e-9
0.404, -4.604e-9
0.405, -4.605e-9
0.406, -4.606e-9
0.407, -4.607e-9
0.408, -4.610e-9
0.409, -4.614e-9
0.410, -4.617e-9
0.411, -4.616e-9
0.412, -4.620e-9
0.413, -4.623e-9
0.414, -4.622e-9
0.415, -4.622e-9
0.416, -4.625e-9
0.417, -4.628e-9
0.418, -4.628e-9
0.419, -4.630e-9
0.420, -4.632e-9
0.421, -4.633e-9
0.422, -4.636e-9
0.423, -4.637e-9
0.424, -4.636e-9
0.425, -4.638e-9
0.426, -4.642e-9
0.427, -4.645e-9
0.428, -4.647e-9
0.429, -4.649e-9
0.430, -4.653e-9
0.431, -4.656e-9
0.432, -4.657e-9
0.433, -4.659e-9
0.434, -4.660e-9
0.435, -4.662e-9
0.436, -4.664e-9
0.437, -4.666e-9
0.438, -4.669e-9
0.439, -4.670e-9
0.440, -4.671e-9
0.441, -4.670e-9
0.442, -4.671e-9
0.443, -4.674e-9
0.444, -4.675e-9
0.445, -4.676e-9
0.446, -4.678e-9
0.447, -4.683e-9
0.448, -4.685e-9
0.449, -4.685e-9
0.450, -4.685e-9
0.451, -4.687e-9
0.452, -4.691e-9
0.453, -4.692e-9
0.454, -4.692e-9
0.455, -4.694e-9
0.456, -4.696e-9
0.457, -4.699e-9
0.458, -4.700e-9
0.459, -4.702e-9
0.460, -4.706e-9
0.461, -4.706e-9
0.462, -4.706e-9
0.463, -4.708e-9
0.464, -4.710e-9
0.465, -4.713e-9
0.466, -4.714e-9
0.467, -4.716e-9
0.468, -4.717e-9
0.469, -4.719e-9
0.470, -4.723e-9
0.471, -4.724e-9
0.472, -4.725e-9
0.473, -4.727e-9
0.474, -4.729e-9
0.475, -4.731e-9
0.476, -4.735e-9
0.477, -4.737e-9
0.478, -4.740e-9
0.479, -4.743e-9
0.480, -4.744e-9
0.481, -4.743e-9
0.482, -4.746e-9
0.483, -4.750e-9
0.484, -4.752e-9
0.485, -4.755e-9
0.486, -4.760e-9
0.487, -4.763e-9
0.488, -4.763e-9
0.489, -4.765e-9
0.490, -4.767e-9
0.491, -4.770e-9
0.492, -4.774e-9
0.493, -4.777e-9
0.494, -4.780e-9
0.495, -4.784e-9
0.496, -4.786e-9
0.497, -4.789e-9
0.498, -4.793e-9
0.499, -4.797e-9
0.500, -4.801e-9
0.501, -4.803e-9
0.502, -4.804e-9
0.503, -4.809e-9
0.504, -4.815e-9
0.505, -4.818e-9
0.506, -4.819e-9
0.507, -4.822e-9
0.508, -4.826e-9
0.509, -4.829e-9
0.510, -4.834e-9
0.511, -4.835e-9
0.512, -4.837e-9
0.513, -4.842e-9
0.514, -4.845e-9
0.515, -4.847e-9
0.516, -4.850e-9
0.517, -4.856e-9
0.518, -4.858e-9
0.519, -4.860e-9
0.520, -4.865e-9
0.521, -4.869e-9
0.522, -4.872e-9
0.523, -4.876e-9
0.524, -4.879e-9
0.525, -4.884e-9
0.526, -4.889e-9
0.527, -4.892e-9
0.528, -4.895e-9
0.529, -4.898e-9
0.530, -4.899e-9
0.531, -4.901e-9
0.532, -4.905e-9
0.533, -4.910e-9
0.534, -4.916e-9
0.535, -4.920e-9
0.536, -4.922e-9
0.537, -4.924e-9
0.538, -4.927e-9
0.539, -4.934e-9
0.540, -4.938e-9
0.541, -4.941e-9
0.542, -4.944e-9
0.543, -4.949e-9
0.544, -4.954e-9
0.545, -4.958e-9
0.546, -4.962e-9
0.547, -4.966e-9
0.548, -4.970e-9
0.549, -4.975e-9
0.550, -4.981e-9
0.551, -4.985e-9
0.552, -4.989e-9
0.553, -4.994e-9
0.554, -4.998e-9
0.555, -5.004e-9
0.556, -5.009e-9
0.557, -5.014e-9
0.558, -5.018e-9
0.559, -5.023e-9
0.560, -5.028e-9
0.561, -5.033e-9
0.562, -5.038e-9
0.563, -5.044e-9
0.564, -5.049e-9
0.565, -5.056e-9
0.566, -5.060e-9
0.567, -5.064e-9
0.568, -5.069e-9
0.569, -5.075e-9
0.570, -5.081e-9
0.571, -5.087e-9
0.572, -5.093e-9
0.573, -5.099e-9
0.574, -5.105e-9
0.575, -5.110e-9
0.576, -5.113e-9
0.577, -5.120e-9
0.578, -5.126e-9
0.579, -5.132e-9
0.580, -5.139e-9
0.581, -5.145e-9
0.582, -5.151e-9
0.583, -5.157e-9
0.584, -5.163e-9
0.585, -5.170e-9
0.586, -5.174e-9
0.587, -5.182e-9
0.588, -5.189e-9
0.589, -5.194e-9
0.590, -5.201e-9
0.591, -5.208e-9
0.592, -5.214e-9
0.593, -5.220e-9
0.594, -5.226e-9
0.595, -5.233e-9
0.596, -5.240e-9
0.597, -5.248e-9
0.598, -5.255e-9
0.599, -5.262e-9
0.600, -5.268e-9
0.601, -5.274e-9
0.602, -5.281e-9
0.603, -5.288e-9
0.604, -5.294e-9
0.605, -5.302e-9
0.606, -5.309e-9
0.607, -5.317e-9
0.608, -5.325e-9
0.609, -5.333e-9
0.610, -5.340e-9
0.611, -5.347e-9
0.612, -5.356e-9
0.613, -5.362e-9
0.614, -5.369e-9
0.615, -5.377e-9
0.616, -5.386e-9
0.617, -5.394e-9
0.618, -5.403e-9
0.619, -5.411e-9
0.620, -5.418e-9
0.621, -5.426e-9
0.622, -5.434e-9
0.623, -5.441e-9
0.624, -5.450e-9
0.625, -5.459e-9
0.626, -5.466e-9
0.627, -5.476e-9
0.628, -5.483e-9
0.629, -5.490e-9
0.630, -5.501e-9
0.631, -5.509e-9
0.632, -5.516e-9
0.633, -5.525e-9
0.634, -5.535e-9
0.635, -5.543e-9
0.636, -5.551e-9
0.637, -5.561e-9
0.638, -5.570e-9
0.639, -5.577e-9
0.640, -5.587e-9
0.641, -5.595e-9
0.642, -5.604e-9
0.643, -5.616e-9
0.644, -5.626e-9
0.645, -5.635e-9
0.646, -5.645e-9
0.647, -5.655e-9
0.648, -5.664e-9
0.649, -5.672e-9
0.650, -5.682e-9
0.651, -5.692e-9
0.652, -5.703e-9
0.653, -5.712e-9
0.654, -5.723e-9
0.655, -5.734e-9
0.656, -5.741e-9
0.657, -5.750e-9
0.658, -5.763e-9
0.659, -5.773e-9
0.660, -5.782e-9
0.661, -5.794e-9
0.662, -5.807e-9
0.663, -5.814e-9
0.664, -5.822e-9
0.665, -5.836e-9
0.666, -5.847e-9
0.667, -5.856e-9
0.668, -5.867e-9
0.669, -5.879e-9
0.670, -5.890e-9
0.671, -5.900e-9
0.672, -5.910e-9
0.673, -5.921e-9
0.674, -5.933e-9
0.675, -5.945e-9
0.676, -5.954e-9
0.677, -5.964e-9
0.678, -5.976e-9
0.679, -5.989e-9
0.680, -6.001e-9
0.681, -6.012e-9
0.682, -6.023e-9
0.683, -6.034e-9
0.684, -6.047e-9
0.685, -6.057e-9
0.686, -6.068e-9
0.687, -6.083e-9
0.688, -6.096e-9
0.689, -6.106e-9
0.690, -6.119e-9
0.691, -6.130e-9
0.692, -6.143e-9
0.693, -6.155e-9
0.694, -6.168e-9
0.695, -6.180e-9
0.696, -6.191e-9
0.697, -6.205e-9
0.698, -6.217e-9
0.699, -6.230e-9
0.700, -6.243e-9
0.701, -6.255e-9
0.702, -6.269e-9
0.703, -6.281e-9
0.704, -6.294e-9
0.705, -6.309e-9
0.706, -6.320e-9
0.707, -6.333e-9
0.708, -6.348e-9
0.709, -6.361e-9
0.710, -6.373e-9
0.711, -6.385e-9
0.712, -6.400e-9
0.713, -6.412e-9
0.714, -6.428e-9
0.715, -6.442e-9
0.716, -6.453e-9
0.717, -6.467e-9
0.718, -6.483e-9
0.719, -6.497e-9
0.720, -6.510e-9
0.721, -6.523e-9
0.722, -6.537e-9
0.723, -6.552e-9
0.724, -6.567e-9
0.725, -6.580e-9
0.726, -6.593e-9
0.727, -6.609e-9
0.728, -6.624e-9
0.729, -6.638e-9
0.730, -6.652e-9
0.731, -6.667e-9
0.732, -6.682e-9
0.733, -6.695e-9
0.734, -6.710e-9
0.735, -6.727e-9
0.736, -6.742e-9
0.737, -6.757e-9
0.738, -6.771e-9
0.739, -6.788e-9
0.740, -6.802e-9
0.741, -6.815e-9
0.742, -6.831e-9
0.743, -6.848e-9
0.744, -6.863e-9
0.745, -6.879e-9
0.746, -6.894e-9
0.747, -6.908e-9
0.748, -6.924e-9
0.749, -6.941e-9
0.750, -6.955e-9
0.751, -6.970e-9
0.752, -6.987e-9
0.753, -7.005e-9
0.754, -7.020e-9
0.755, -7.035e-9
0.756, -7.051e-9
0.757, -7.069e-9
0.758, -7.086e-9
0.759, -7.100e-9
0.760, -7.116e-9
0.761, -7.133e-9
0.762, -7.151e-9
0.763, -7.167e-9
0.764, -7.185e-9
0.765, -7.201e-9
0.766, -7.217e-9
0.767, -7.235e-9
0.768, -7.251e-9
0.769, -7.267e-9
0.770, -7.285e-9
0.771, -7.302e-9
0.772, -7.319e-9
0.773, -7.335e-9
0.774, -7.353e-9
0.775, -7.371e-9
0.776, -7.387e-9
0.777, -7.405e-9
0.778, -7.423e-9
0.779, -7.442e-9
0.780, -7.459e-9
0.781, -7.475e-9
0.782, -7.494e-9
0.783, -7.513e-9
0.784, -7.531e-9
0.785, -7.550e-9
0.786, -7.567e-9
0.787, -7.584e-9
0.788, -7.603e-9
0.789, -7.621e-9
0.790, -7.639e-9
0.791, -7.657e-9
0.792, -7.678e-9
0.793, -7.695e-9
0.794, -7.710e-9
0.795, -7.730e-9
0.796, -7.750e-9
0.797, -7.769e-9
0.798, -7.788e-9
0.799, -7.807e-9
0.800, -7.785e-9
0.799, -7.634e-9
0.798, -7.474e-9
0.797, -7.327e-9
0.796, -7.194e-9
0.795, -7.076e-9
0.794, -6.964e-9
0.793, -6.858e-9
0.792, -6.760e-9
0.791, -6.667e-9
0.790, -6.579e-9
0.789, -6.493e-9
0.788, -6.409e-9
0.787, -6.331e-9
0.786, -6.257e-9
0.785, -6.181e-9
0.784, -6.107e-9
0.783, -6.038e-9
0.782, -5.971e-9
0.781, -5.903e-9
0.780, -5.839e-9
0.779, -5.775e-9
0.778, -5.711e-9
0.777, -5.651e-9
0.776, -5.593e-9
0.775, -5.534e-9
0.774, -5.477e-9
0.773, -5.423e-9
0.772, -5.366e-9
0.771, -5.312e-9
0.770, -5.260e-9
0.769, -5.208e-9
0.768, -5.159e-9
0.767, -5.108e-9
0.766, -5.057e-9
0.765, -5.009e-9
0.764, -4.964e-9
0.763, -4.916e-9
0.762, -4.868e-9
0.761, -4.824e-9
0.760, -4.781e-9
0.759, -4.736e-9
0.758, -4.692e-9
0.757, -4.648e-9
0.756, -4.606e-9
0.755, -4.565e-9
0.754, -4.522e-9
0.753, -4.482e-9
0.752, -4.442e-9
0.751, -4.403e-9
0.750, -4.364e-9
0.749, -4.323e-9
0.748, -4.284e-9
0.747, -4.247e-9
0.746, -4.210e-9
0.745, -4.174e-9
0.744, -4.137e-9
0.743, -4.104e-9
0.742, -4.069e-9
0.741, -4.032e-9
0.740, -3.995e-9
0.739, -3.962e-9
0.738, -3.929e-9
0.737, -3.895e-9
0.736, -3.862e-9
0.735, -3.828e-9
0.734, -3.796e-9
0.733, -3.765e-9
0.732, -3.732e-9
0.731, -3.699e-9
0.730, -3.668e-9
0.729, -3.638e-9
0.728, -3.607e-9
0.727, -3.577e-9
0.726, -3.547e-9
0.725, -3.517e-9
0.724, -3.490e-9
0.723, -3.462e-9
0.722, -3.430e-9
0.721, -3.403e-9
0.720, -3.376e-9
0.719, -3.345e-9
0.718, -3.317e-9
0.717, -3.291e-9
0.716, -3.264e-9
0.715, -3.236e-9
0.714, -3.209e-9
0.713, -3.183e-9
0.712, -3.156e-9
0.711, -3.130e-9
0.710, -3.105e-9
0.709, -3.078e-9
0.708, -3.053e-9
0.707, -3.029e-9
0.706, -3.004e-9
0.705, -2.978e-9
0.704, -2.954e-9
0.703, -2.931e-9
0.702, -2.906e-9
0.701, -2.881e-9
0.700, -2.858e-9
0.699, -2.837e-9
0.698, -2.814e-9
0.697, -2.788e-9
0.696, -2.765e-9
0.695, -2.743e-9
0.694, -2.721e-9
0.693, -2.698e-9
0.692, -2.675e-9
0.691, -2.654e-9
0.690, -2.631e-9
0.689, -2.610e-9
0.688, -2.589e-9
0.687, -2.567e-9
0.686, -2.546e-9
0.685, -2.525e-9
0.684, -2.503e-9
0.683, -2.483e-9
0.682, -2.464e-9
0.681, -2.444e-9
0.680, -2.423e-9
0.679, -2.403e-9
0.678, -2.384e-9
0.677, -2.364e-9
0.676, -2.344e-9
0.675, -2.324e-9
0.674, -2.305e-9
0.673, -2.286e-9
0.672, -2.266e-9
0.671, -2.247e-9
0.670, -2.230e-9
0.669, -2.213e-9
0.668, -2.194e-9
0.667, -2.174e-9
0.666, -2.155e-9
0.665, -2.136e-9
0.664, -2.119e-9
0.663, -2.103e-9
0.662, -2.086e-9
0.661, -2.068e-9
0.660, -2.052e-9
0.659, -2.035e-9
0.658, -2.015e-9
0.657, -1.997e-9
0.656, -1.981e-9
0.655, -1.964e-9
0.654, -1.948e-9
0.653, -1.932e-9
0.652, -1.916e-9
0.651, -1.901e-9
0.650, -1.884e-9
0.649, -1.868e-9
0.648, -1.853e-9
0.647, -1.837e-9
0.646, -1.821e-9
0.645, -1.805e-9
0.644, -1.790e-9
0.643, -1.776e-9
0.642, -1.761e-9
0.641, -1.746e-9
0.640, -1.729e-9
0.639, -1.713e-9
0.638, -1.700e-9
0.637, -1.684e-9
0.636, -1.669e-9
0.635, -1.656e-9
0.634, -1.642e-9
0.633, -1.628e-9
0.632, -1.612e-9
0.631, -1.597e-9
0.630, -1.582e-9
0.629, -1.570e-9
0.628, -1.557e-9
0.627, -1.542e-9
0.626, -1.529e-9
0.625, -1.516e-9
0.624, -1.501e-9
0.623, -1.487e-9
0.622, -1.476e-9
0.621, -1.463e-9
0.620, -1.449e-9
0.619, -1.436e-9
0.618, -1.423e-9
0.617, -1.409e-9
0.616, -1.397e-9
0.615, -1.384e-9
0.614, -1.370e-9
0.613, -1.359e-9
0.612, -1.347e-9
0.611, -1.335e-9
0.610, -1.321e-9
0.609, -1.309e-9
0.608, -1.297e-9
0.607, -1.285e-9
0.606, -1.275e-9
0.605, -1.261e-9
0.604, -1.249e-9
0.603, -1.239e-9
0.602, -1.227e-9
0.601, -1.214e-9
0.600, -1.203e-9
0.599, -1.192e-9
0.598, -1.181e-9
0.597, -1.169e-9
0.596, -1.158e-9
0.595, -1.146e-9
0.594, -1.137e-9
0.593, -1.126e-9
0.592, -1.114e-9
0.591, -1.104e-9
0.590, -1.094e-9
0.589, -1.083e-9
0.588, -1.072e-9
0.587, -1.063e-9
0.586, -1.053e-9
0.585, -1.042e-9
0.584, -1.030e-9
0.583, -1.021e-9
0.582, -1.013e-9
0.581, -1.003e-9
0.580, -9.911e-10
0.579, -9.811e-10
0.578, -9.724e-10
0.577, -9.626e-10
0.576, -9.517e-10
0.575, -9.410e-10
0.574, -9.316e-10
0.573, -9.223e-10
0.572, -9.137e-10
0.571, -9.044e-10
0.570, -8.933e-10
0.569, -8.852e-10
0.568, -8.771e-10
0.567, -8.668e-10
0.566, -8.575e-10
0.565, -8.492e-10
0.564, -8.413e-10
0.563, -8.329e-10
0.562, -8.226e-10
0.561, -8.121e-10
0.560, -8.032e-10
0.559, -7.962e-10
0.558, -7.883e-10
0.557, -7.780e-10
0.556, -7.703e-10
0.555, -7.621e-10
0.554, -7.524e-10
0.553, -7.444e-10
0.552, -7.366e-10
0.551, -7.295e-10
0.550, -7.222e-10
0.549, -7.138e-10
0.548, -7.052e-10
0.547, -6.970e-10
0.546, -6.895e-10
0.545, -6.811e-10
0.544, -6.734e-10
0.543, -6.665e-10
0.542, -6.589e-10
0.541, -6.493e-10
0.540, -6.412e-10
0.539, -6.342e-10
0.538, -6.267e-10
0.537, -6.195e-10
0.536, -6.121e-10
0.535, -6.049e-10
0.534, -5.985e-10
0.533, -5.910e-10
0.532, -5.822e-10
0.531, -5.757e-10
0.530, -5.702e-10
0.529, -5.638e-10
0.528, -5.563e-10
0.527, -5.473e-10
0.526, -5.406e-10
0.525, -5.357e-10
0.524, -5.301e-10
0.523, -5.227e-10
0.522, -5.149e-10
0.521, -5.091e-10
0.520, -5.022e-10
0.519, -4.943e-10
0.518, -4.882e-10
0.517, -4.815e-10
0.516, -4.755e-10
0.515, -4.707e-10
0.514, -4.636e-10
0.513, -4.563e-10
0.512, -4.501e-10
0.511, -4.443e-10
0.510, -4.381e-10
0.509, -4.322e-10
0.508, -4.259e-10
0.507, -4.195e-10
0.506, -4.136e-10
0.505, -4.079e-10
0.504, -4.017e-10
0.503, -3.957e-10
0.502, -3.900e-10
0.501, -3.836e-10
0.500, -3.772e-10
0.499, -3.720e-10
0.498, -3.666e-10
0.497, -3.602e-10
0.496, -3.549e-10
0.495, -3.499e-10
0.494, -3.449e-10
0.493, -3.393e-10
0.492, -3.319e-10
0.491, -3.280e-10
0.490, -3.246e-10
0.489, -3.198e-10
0.488, -3.131e-10
0.487, -3.070e-10
0.486, -3.030e-10
0.485, -2.971e-10
0.484, -2.905e-10
0.483, -2.854e-10
0.482, -2.805e-10
0.481, -2.759e-10
0.480, -2.709e-10
0.479, -2.661e-10
0.478, -2.609e-10
0.477, -2.551e-10
0.476, -2.520e-10
0.475, -2.481e-10
0.474, -2.419e-10
0.473, -2.369e-10
0.472, -2.332e-10
0.471, -2.282e-10
0.470, -2.220e-10
0.469, -2.177e-10
0.468, -2.149e-10
0.467, -2.095e-10
0.466, -2.041e-10
0.465, -2.000e-10
0.464, -1.959e-10
0.463, -1.902e-10
0.462, -1.855e-10
0.461, -1.828e-10
0.460, -1.775e-10
0.459, -1.722e-10
0.458, -1.676e-10
0.457, -1.645e-10
0.456, -1.607e-10
0.455, -1.556e-10
0.454, -1.522e-10
0.453, -1.474e-10
0.452, -1.418e-10
0.451, -1.402e-10
0.450, -1.367e-10
0.449, -1.314e-10
0.448, -1.274e-10
0.447, -1.244e-10
0.446, -1.198e-10
0.445, -1.133e-10
0.444, -1.089e-10
0.443, -1.075e-10
0.442, -1.045e-10
0.441, -1.002e-10
0.440, -9.490e-11
0.439, -8.996e-11
0.438, -8.709e-11
0.437, -8.466e-11
0.436, -8.214e-11
0.435, -7.723e-11
0.434, -7.130e-11
0.433, -6.803e-11
0.432, -6.566e-11
0.431, -6.122e-11
0.430, -5.694e-11
0.429, -5.458e-11
0.428, -5.219e-11
0.427, -4.733e-11
0.426, -4.405e-11
0.425, -4.264e-11
0.424, -3.793e-11
0.423, -3.217e-11
0.422, -3.023e-11
0.421, -2.799e-11
0.420, -2.319e-11
0.419, -2.087e-11
0.418, -1.773e-11
0.417, -1.281e-11
0.416, -1.040e-11
0.415, -7.187e-12
0.414, -2.394e-12
0.413, 7.225e-13
0.412, 3.180e-12
0.411, 5.857e-12
0.410, 1.048e-11
0.409, 1.550e-11
0.408, 1.887e-11
0.407, 2.031e-11
0.406, 2.139e-11
0.405, 2.690e-11
0.404, 3.119e-11
0.403, 3.356e-11
0.402, 3.611e-11
0.401, 3.807e-11
0.400, 3.985e-11
0.399, 4.329e-11
0.398, 4.686e-11
0.397, 4.855e-11
0.396, 5.161e-11
0.395, 5.644e-11
0.394, 5.868e-11
0.393, 6.042e-11
0.392, 6.550e-11
0.391, 6.773e-11
0.390, 6.872e-11
0.389, 7.250e-11
0.388, 7.721e-11
0.387, 7.992e-11
0.386, 8.205e-11
0.385, 8.452e-11
0.384, 8.639e-11
0.383, 9.008e-11
0.382, 9.275e-11
0.381, 9.386e-11
0.380, 9.812e-11
0.379, 1.013e-10
0.378, 1.038e-10
0.377, 1.061e-10
0.376, 1.083e-10
0.375, 1.118e-10
0.374, 1.153e-10
0.373, 1.194e-10
0.372, 1.204e-10
0.371, 1.211e-10
0.370, 1.258e-10
0.369, 1.287e-10
0.368, 1.314e-10
0.367, 1.346e-10
0.366, 1.354e-10
0.365, 1.380e-10
0.364, 1.413e-10
0.363, 1.435e-10
0.362, 1.461e-10
0.361, 1.506e-10
0.360, 1.548e-10
0.359, 1.554e-10
0.358, 1.572e-10
0.357, 1.616e-10
0.356, 1.639e-10
0.355, 1.654e-10
0.354, 1.690e-10
0.353, 1.730e-10
0.352, 1.757e-10
0.351, 1.785e-10
0.350, 1.819e-10
0.349, 1.848e-10
0.348, 1.876e-10
0.347, 1.905e-10
0.346, 1.928e-10
0.345, 1.956e-10
0.344, 1.985e-10
0.343, 2.029e-10
0.342, 2.057e-10
0.341, 2.076e-10
0.340, 2.112e-10
0.339, 2.163e-10
0.338, 2.192e-10
0.337, 2.214e-10
0.336, 2.243e-10
0.335, 2.296e-10
0.334, 2.324e-10
0.333, 2.350e-10
0.332, 2.390e-10
0.331, 2.421e-10
0.330, 2.459e-10
0.329, 2.499e-10
0.328, 2.531e-10
0.327, 2.557e-10
0.326, 2.585e-10
0.325, 2.638e-10
0.324, 2.678e-10
0.323, 2.706e-10
0.322, 2.751e-10
0.321, 2.800e-10
0.320, 2.847e-10
0.319, 2.892e-10
0.318, 2.933e-10
0.317, 2.979e-10
0.316, 3.007e-10
0.315, 3.055e-10
0.314, 3.110e-10
0.313, 3.161e-10
0.312, 3.207e-10
0.311, 3.253e-10
0.310, 3.297e-10
0.309, 3.337e-10
0.308, 3.394e-10
0.307, 3.462e-10
0.306, 3.517e-10
0.305, 3.582e-10
0.304, 3.654e-10
0.303, 3.707e-10
0.302, 3.747e-10
0.301, 3.811e-10
0.300, 3.896e-10
0.299, 3.955e-10
0.298, 4.024e-10
0.297, 4.099e-10
0.296, 4.169e-10
0.295, 4.244e-10
0.294, 4.304e-10
0.293, 4.386e-10
0.292, 4.463e-10
0.291, 4.550e-10
0.290, 4.639e-10
0.289, 4.711e-10
0.288, 4.794e-10
0.287, 4.901e-10
0.286, 5.000e-10
0.285, 5.087e-10
0.284, 5.172e-10
0.283, 5.286e-10
0.282, 5.403e-10
0.281, 5.492e-10
0.280, 5.600e-10
0.279, 5.718e-10
0.278, 5.819e-10
0.277, 5.924e-10
0.276, 6.059e-10
0.275, 6.201e-10
0.274, 6.328e-10
0.273, 6.452e-10
0.272, 6.577e-10
0.271, 6.698e-10
0.270, 6.847e-10
0.269, 7.014e-10
0.268, 7.170e-10
0.267, 7.311e-10
0.266, 7.469e-10
0.265, 7.644e-10
0.264, 7.804e-10
0.263, 7.973e-10
0.262, 8.158e-10
0.261, 8.339e-10
0.260, 8.525e-10
0.259, 8.700e-10
0.258, 8.894e-10
0.257, 9.101e-10
0.256, 9.309e-10
0.255, 9.533e-10
0.254, 9.745e-10
0.253, 9.956e-10
0.252, 1.017e-9
0.251, 1.040e-9
0.250, 1.064e-9
0.249, 1.087e-9
0.248, 1.111e-9
0.247, 1.137e-9
0.246, 1.161e-9
0.245, 1.186e-9
0.244, 1.212e-9
0.243, 1.239e-9
0.242, 1.267e-9
0.241, 1.293e-9
0.240, 1.322e-9
0.239, 1.351e-9
0.238, 1.379e-9
0.237, 1.408e-9
0.236, 1.437e-9
0.235, 1.468e-9
0.234, 1.499e-9
0.233, 1.530e-9
0.232, 1.560e-9
0.231, 1.591e-9
0.230, 1.623e-9
0.229, 1.656e-9
0.228, 1.689e-9
0.227, 1.721e-9
0.226, 1.754e-9
0.225, 1.786e-9
0.224, 1.818e-9
0.223, 1.851e-9
0.222, 1.886e-9
0.221, 1.919e-9
0.220, 1.952e-9
0.219, 1.985e-9
0.218, 2.019e-9
0.217, 2.053e-9
0.216, 2.086e-9
0.215, 2.118e-9
0.214, 2.150e-9
0.213, 2.183e-9
0.212, 2.217e-9
0.211, 2.249e-9
0.210, 2.281e-9
0.209, 2.313e-9
0.208, 2.345e-9
0.207, 2.376e-9
0.206, 2.407e-9
0.205, 2.438e-9
0.204, 2.468e-9
0.203, 2.498e-9
0.202, 2.527e-9
0.201, 2.555e-9
0.200, 2.583e-9
0.199, 2.611e-9
0.198, 2.638e-9
0.197, 2.664e-9
0.196, 2.690e-9
0.195, 2.715e-9
0.194, 2.740e-9
0.193, 2.764e-9
0.192, 2.788e-9
0.191, 2.811e-9
0.190, 2.832e-9
0.189, 2.854e-9
0.188, 2.876e-9
0.187, 2.896e-9
0.186, 2.915e-9
0.185, 2.935e-9
0.184, 2.953e-9
0.183, 2.971e-9
0.182, 2.988e-9
0.181, 3.005e-9
0.180, 3.022e-9
0.179, 3.037e-9
0.178, 3.053e-9
0.177, 3.067e-9
0.176, 3.081e-9
0.175, 3.095e-9
0.174, 3.107e-9
0.173, 3.120e-9
0.172, 3.132e-9
0.171, 3.143e-9
0.170, 3.154e-9
0.169, 3.164e-9
0.168, 3.174e-9
0.167, 3.184e-9
0.166, 3.193e-9
0.165, 3.203e-9
0.164, 3.211e-9
0.163, 3.219e-9
0.162, 3.227e-9
0.161, 3.234e-9
0.160, 3.241e-9
0.159, 3.248e-9
0.158, 3.254e-9
0.157, 3.260e-9
0.156, 3.266e-9
0.155, 3.272e-9
0.154, 3.278e-9
0.153, 3.283e-9
0.152, 3.288e-9
0.151, 3.292e-9
0.150, 3.297e-9
0.149, 3.301e-9
0.148, 3.305e-9
0.147, 3.309e-9
0.146, 3.313e-9
0.145, 3.316e-9
0.144, 3.319e-9
0.143, 3.323e-9
0.142, 3.326e-9
0.141, 3.329e-9
0.140, 3.333e-9
0.139, 3.336e-9
0.138, 3.339e-9
0.137, 3.341e-9
0.136, 3.344e-9
0.135, 3.347e-9
0.134, 3.349e-9
0.133, 3.352e-9
0.132, 3.355e-9
0.131, 3.356e-9
0.130, 3.359e-9
0.129, 3.361e-9
0.128, 3.364e-9
0.127, 3.367e-9
0.126, 3.369e-9
0.125, 3.372e-9
0.124, 3.373e-9
0.123, 3.375e-9
0.122, 3.378e-9
0.121, 3.380e-9
0.120, 3.383e-9
0.119, 3.385e-9
0.118, 3.387e-9
0.117, 3.389e-9
0.116, 3.391e-9
0.115, 3.394e-9
0.114, 3.396e-9
0.113, 3.398e-9
0.112, 3.401e-9
0.111, 3.403e-9
0.110, 3.405e-9
0.109, 3.408e-9
0.108, 3.410e-9
0.107, 3.412e-9
0.106, 3.415e-9
0.105, 3.418e-9
0.104, 3.420e-9
0.103, 3.423e-9
0.102, 3.426e-9
0.101, 3.429e-9
0.100, 3.432e-9
0.099, 3.434e-9
0.098, 3.437e-9
0.097, 3.440e-9
0.096, 3.443e-9
0.095, 3.446e-9
0.094, 3.448e-9
0.093, 3.451e-9
0.092, 3.454e-9
0.091, 3.458e-9
0.090, 3.461e-9
0.089, 3.464e-9
0.088, 3.467e-9
0.087, 3.470e-9
0.086, 3.473e-9
0.085, 3.477e-9
0.084, 3.481e-9
0.083, 3.485e-9
0.082, 3.488e-9
0.081, 3.491e-9
0.080, 3.496e-9
0.079, 3.499e-9
0.078, 3.503e-9
0.077, 3.507e-9
0.076, 3.511e-9
0.075, 3.515e-9
0.074, 3.519e-9
0.073, 3.523e-9
0.072, 3.527e-9
0.071, 3.531e-9
0.070, 3.535e-9
0.069, 3.539e-9
0.068, 3.544e-9
0.067, 3.548e-9
0.066, 3.552e-9
0.065, 3.557e-9
0.064, 3.561e-9
0.063, 3.566e-9
0.062, 3.571e-9
0.061, 3.575e-9
0.060, 3.580e-9
0.059, 3.585e-9
0.058, 3.590e-9
0.057, 3.595e-9
0.056, 3.600e-9
0.055, 3.606e-9
0.054, 3.610e-9
0.053, 3.616e-9
0.052, 3.621e-9
0.051, 3.626e-9
0.050, 3.632e-9
0.049, 3.637e-9
0.048, 3.642e-9
0.047, 3.647e-9
0.046, 3.653e-9
0.045, 3.658e-9
0.044, 3.664e-9
0.043, 3.670e-9
0.042, 3.676e-9
0.041, 3.681e-9
0.040, 3.688e-9
0.039, 3.693e-9
0.038, 3.699e-9
0.037, 3.706e-9
0.036, 3.712e-9
0.035, 3.718e-9
0.034, 3.724e-9
0.033, 3.730e-9
0.032, 3.736e-9
0.031, 3.743e-9
0.030, 3.749e-9
0.029, 3.755e-9
0.028, 3.763e-9
0.027, 3.769e-9
0.026, 3.775e-9
0.025, 3.782e-9
0.024, 3.788e-9
0.023, 3.795e-9
0.022, 3.802e-9
0.021, 3.809e-9
0.020, 3.816e-9
0.019, 3.822e-9
0.018, 3.830e-9
0.017, 3.836e-9
0.016, 3.843e-9
0.015, 3.851e-9
0.014, 3.857e-9
0.013, 3.864e-9
0.012, 3.871e-9
0.011, 3.878e-9
0.010, 3.886e-9
0.009, 3.893e-9
0.008, 3.901e-9
0.007, 3.908e-9
0.006, 3.915e-9
0.005, 3.923e-9
0.004, 3.930e-9
0.003, 3.938e-9
0.002, 3.945e-9
0.001, 3.953e-9
