Results:

Channel 1:
Segment 1:
Ep = 0.316V
ip = -3.094e-9A
Ah = -3.629e-9C

Segment 2:

Potential/V, Current/A

0.000, 3.517e-10
0.001, 3.302e-10
0.002, 3.164e-10
0.003, 3.051e-10
0.004, 2.965e-10
0.005, 2.895e-10
0.006, 2.820e-10
0.007, 2.764e-10
0.008, 2.700e-10
0.009, 2.644e-10
0.010, 2.595e-10
0.011, 2.535e-10
0.012, 2.487e-10
0.013, 2.432e-10
0.014, 2.381e-10
0.015, 2.337e-10
0.016, 2.284e-10
0.017, 2.241e-10
0.018, 2.190e-10
0.019, 2.146e-10
0.020, 2.103e-10
0.021, 2.056e-10
0.022, 2.018e-10
0.023, 1.968e-10
0.024, 1.929e-10
0.025, 1.889e-10
0.026, 1.841e-10
0.027, 1.806e-10
0.028, 1.760e-10
0.029, 1.724e-10
0.030, 1.688e-10
0.031, 1.639e-10
0.032, 1.609e-10
0.033, 1.562e-10
0.034, 1.526e-10
0.035, 1.493e-10
0.036, 1.449e-10
0.037, 1.423e-10
0.038, 1.380e-10
0.039, 1.344e-10
0.040, 1.311e-10
0.041, 1.269e-10
0.042, 1.245e-10
0.043, 1.204e-10
0.044, 1.170e-10
0.045, 1.140e-10
0.046, 1.098e-10
0.047, 1.069e-10
0.048, 1.032e-10
0.049, 9.983e-11
0.050, 9.691e-11
0.051, 9.298e-11
0.052, 9.029e-11
0.053, 8.637e-11
0.054, 8.342e-11
0.055, 8.038e-11
0.056, 7.642e-11
0.057, 7.397e-11
0.058, 7.036e-11
0.059, 6.715e-11
0.060, 6.391e-11
0.061, 6.025e-11
0.062, 5.808e-11
0.063, 5.436e-11
0.064, 5.160e-11
0.065, 4.838e-11
0.066, 4.479e-11
0.067, 4.236e-11
0.068, 3.857e-11
0.069, 3.572e-11
0.070, 3.277e-11
0.071, 2.884e-11
0.072, 2.640e-11
0.073, 2.268e-11
0.074, 1.975e-11
0.075, 1.711e-11
0.076, 1.329e-11
0.077, 1.097e-11
0.078, 7.094e-12
0.079, 3.796e-12
0.080, 1.149e-12
0.081, -2.955e-12
0.082, -5.535e-12
0.083, -9.296e-12
0.084, -1.245e-11
0.085, -1.526e-11
0.086, -1.934e-11
0.087, -2.220e-11
0.088, -2.599e-11
0.089, -2.932e-11
0.090, -3.252e-11
0.091, -3.675e-11
0.092, -3.962e-11
0.093, -4.366e-11
0.094, -4.740e-11
0.095, -5.085e-11
0.096, -5.527e-11
0.097, -5.841e-11
0.098, -6.258e-11
0.099, -6.646e-11
0.100, -7.026e-11
0.101, -7.474e-11
0.102, -7.817e-11
0.103, -8.319e-11
0.104, -8.724e-11
0.105, -9.137e-11
0.106, -9.621e-11
0.107, -1.001e-10
0.108, -1.055e-10
0.109, -1.100e-10
0.110, -1.147e-10
0.111, -1.201e-10
0.112, -1.244e-10
0.113, -1.303e-10
0.114, -1.357e-10
0.115, -1.406e-10
0.116, -1.467e-10
0.117, -1.516e-10
0.118, -1.581e-10
0.119, -1.638e-10
0.120, -1.694e-10
0.121, -1.763e-10
0.122, -1.821e-10
0.123, -1.892e-10
0.124, -1.960e-10
0.125, -2.025e-10
0.126, -2.103e-10
0.127, -2.171e-10
0.128, -2.250e-10
0.129, -2.327e-10
0.130, -2.405e-10
0.131, -2.492e-10
0.132, -2.569e-10
0.133, -2.662e-10
0.134, -2.753e-10
0.135, -2.842e-10
0.136, -2.943e-10
0.137, -3.034e-10
0.138, -3.138e-10
0.139, -3.238e-10
0.140, -3.342e-10
0.141, -3.455e-10
0.142, -3.562e-10
0.143, -3.685e-10
0.144, -3.799e-10
0.145, -3.921e-10
0.146, -4.053e-10
0.147, -4.178e-10
0.148, -4.319e-10
0.149, -4.453e-10
0.150, -4.594e-10
0.151, -4.748e-10
0.152, -4.889e-10
0.153, -5.049e-10
0.154, -5.206e-10
0.155, -5.371e-10
0.156, -5.546e-10
0.157, -5.709e-10
0.158, -5.895e-10
0.159, -6.078e-10
0.160, -6.265e-10
0.161, -6.468e-10
0.162, -6.656e-10
0.163, -6.866e-10
0.164, -7.074e-10
0.165, -7.285e-10
0.166, -7.513e-10
0.167, -7.730e-10
0.168, -7.968e-10
0.169, -8.209e-10
0.170, -8.449e-10
0.171, -8.705e-10
0.172, -8.954e-10
0.173, -9.222e-10
0.174, -9.490e-10
0.175, -9.762e-10
0.176, -1.005e-9
0.177, -1.033e-9
0.178, -1.063e-9
0.179, -1.092e-9
0.180, -1.122e-9
0.181, -1.154e-9
0.182, -1.185e-9
0.183, -1.218e-9
0.184, -1.251e-9
0.185, -1.284e-9
0.186, -1.318e-9
0.187, -1.352e-9
0.188, -1.388e-9
0.189, -1.423e-9
0.190, -1.459e-9
0.191, -1.497e-9
0.192, -1.533e-9
0.193, -1.571e-9
0.194, -1.608e-9
0.195, -1.646e-9
0.196, -1.686e-9
0.197, -1.723e-9
0.198, -1.764e-9
0.199, -1.804e-9
0.200, -1.843e-9
0.201, -1.884e-9
0.202, -1.923e-9
0.203, -1.964e-9
0.204, -2.005e-9
0.205, -2.046e-9
0.206, -2.088e-9
0.207, -2.128e-9
0.208, -2.168e-9
0.209, -2.209e-9
0.210, -2.249e-9
0.211, -2.291e-9
0.212, -2.331e-9
0.213, -2.370e-9
0.214, -2.411e-9
0.215, -2.450e-9
0.216, -2.490e-9
0.217, -2.529e-9
0.218, -2.568e-9
0.219, -2.606e-9
0.220, -2.644e-9
0.221, -2.682e-9
0.222, -2.718e-9
0.223, -2.755e-9
0.224, -2.790e-9
0.225, -2.826e-9
0.226, -2.860e-9
0.227, -2.894e-9
0.228, -2.929e-9
0.229, -2.961e-9
0.230, -2.994e-9
0.231, -3.026e-9
0.232, -3.057e-9
0.233, -3.088e-9
0.234, -3.117e-9
0.235, -3.144e-9
0.236, -3.173e-9
0.237, -3.200e-9
0.238, -3.228e-9
0.239, -3.254e-9
0.240, -3.278e-9
0.241, -3.303e-9
0.242, -3.326e-9
0.243, -3.350e-9
0.244, -3.372e-9
0.245, -3.393e-9
0.246, -3.415e-9
0.247, -3.434e-9
0.248, -3.455e-9
0.249, -3.475e-9
0.250, -3.492e-9
0.251, -3.510e-9
0.252, -3.526e-9
0.253, -3.542e-9
0.254, -3.558e-9
0.255, -3.572e-9
0.256, -3.587e-9
0.257, -3.600e-9
0.258, -3.614e-9
0.259, -3.626e-9
0.260, -3.638e-9
0.261, -3.650e-9
0.262, -3.661e-9
0.263, -3.673e-9
0.264, -3.682e-9
0.265, -3.692e-9
0.266, -3.702e-9
0.267, -3.711e-9
0.268, -3.719e-9
0.269, -3.726e-9
0.270, -3.734e-9
0.271, -3.742e-9
0.272, -3.748e-9
0.273, -3.755e-9
0.274, -3.762e-9
0.275, -3.768e-9
0.276, -3.775e-9
0.277, -3.779e-9
0.278, -3.784e-9
0.279, -3.788e-9
0.280, -3.791e-9
0.281, -3.796e-9
0.282, -3.799e-9
0.283, -3.804e-9
0.284, -3.807e-9
0.285, -3.810e-9
0.286, -3.813e-9
0.287, -3.816e-9
0.288, -3.820e-9
0.289, -3.821e-9
0.290, -3.823e-9
0.291, -3.826e-9
0.292, -3.828e-9
0.293, -3.831e-9
0.294, -3.833e-9
0.295, -3.834e-9
0.296, -3.836e-9
0.297, -3.836e-9
0.298, -3.837e-9
0.299, -3.839e-9
0.300, -3.841e-9
0.301, -3.842e-9
0.302, -3.840e-9
0.303, -3.842e-9
0.304, -3.842e-9
0.305, -3.843e-9
0.306, -3.845e-9
0.307, -3.844e-9
0.308, -3.845e-9
0.309, -3.845e-9
0.310, -3.845e-9
0.311, -3.846e-9
0.312, -3.845e-9
0.313, -3.847e-9
0.314, -3.846e-9
0.315, -3.847e-9
0.316, -3.848e-9
0.317, -3.847e-9
0.318, -3.847e-9
0.319, -3.848e-9
0.320, -3.847e-9
0.321, -3.847e-9
0.322, -3.846e-9
0.323, -3.846e-9
0.324, -3.846e-9
0.325, -3.846e-9
0.326, -3.846e-9
0.327, -3.845e-9
0.328, -3.845e-9
0.329, -3.845e-9
0.330, -3.844e-9
0.331, -3.845e-9
0.332, -3.844e-9
0.333, -3.844e-9
0.334, -3.844e-9
0.335, -3.844e-9
0.336, -3.845e-9
0.337, -3.843e-9
0.338, -3.843e-9
0.339, -3.843e-9
0.340, -3.842e-9
0.341, -3.843e-9
0.342, -3.842e-9
0.343, -3.843e-9
0.344, -3.842e-9
0.345, -3.841e-9
0.346, -3.840e-9
0.347, -3.840e-9
0.348, -3.841e-9
0.349, -3.840e-9
0.350, -3.839e-9
0.351, -3.840e-9
0.352, -3.839e-9
0.353, -3.838e-9
0.354, -3.838e-9
0.355, -3.838e-9
0.356, -3.839e-9
0.357, -3.837e-9
0.358, -3.837e-9
0.359, -3.837e-9
0.360, -3.837e-9
0.361, -3.838e-9
0.362, -3.838e-9
0.363, -3.838e-9
0.364, -3.838e-9
0.365, -3.837e-9
0.366, -3.837e-9
0.367, -3.837e-9
0.368, -3.839e-9
0.369, -3.839e-9
0.370, -3.838e-9
0.371, -3.838e-9
0.372, -3.838e-9
0.373, -3.838e-9
0.374, -3.838e-9
0.375, -3.838e-9
0.376, -3.839e-9
0.377, -3.838e-9
0.378, -3.839e-9
0.379, -3.839e-9
0.380, -3.839e-9
0.381, -3.840e-9
0.382, -3.839e-9
0.383, -3.840e-9
0.384, -3.840e-9
0.385, -3.841e-9
0.386, -3.841e-9
0.387, -3.840e-9
0.388, -3.842e-9
0.389, -3.841e-9
0.390, -3.842e-9
0.391, -3.843e-9
0.392, -3.842e-9
0.393, -3.844e-9
0.394, -3.844e-9
0.395, -3.844e-9
0.396, -3.844e-9
0.397, -3.843e-9
0.398, -3.845e-9
0.399, -3.846e-9
0.400, -3.846e-9
0.401, -3.848e-9
0.402, -3.847e-9
0.403, -3.848e-9
0.404, -3.848e-9
0.405, -3.849e-9
0.406, -3.850e-9
0.407, -3.849e-9
0.408, -3.850e-9
0.409, -3.851e-9
0.410, -3.852e-9
0.411, -3.853e-9
0.412, -3.852e-9
0.413, -3.853e-9
0.414, -3.854e-9
0.415, -3.854e-9
0.416, -3.855e-9
0.417, -3.855e-9
0.418, -3.855e-9
0.419, -3.856e-9
0.420, -3.857e-9
0.421, -3.859e-9
0.422, -3.859e-9
0.423, -3.861e-9
0.424, -3.861e-9
0.425, -3.860e-9
0.426, -3.861e-9
0.427, -3.862e-9
0.428, -3.863e-9
0.429, -3.865e-9
0.430, -3.866e-9
0.431, -3.867e-9
0.432, -3.866e-9
0.433, -3.867e-9
0.434, -3.868e-9
0.435, -3.869e-9
0.436, -3.870e-9
0.437, -3.870e-9
0.438, -3.872e-9
0.439, -3.873e-9
0.440, -3.872e-9
0.441, -3.873e-9
0.442, -3.874e-9
0.443, -3.875e-9
0.444, -3.876e-9
0.445, -3.877e-9
0.446, -3.879e-9
0.447, -3.879e-9
0.448, -3.881e-9
0.449, -3.882e-9
0.450, -3.883e-9
0.451, -3.884e-9
0.452, -3.885e-9
0.453, -3.887e-9
0.454, -3.887e-9
0.455, -3.888e-9
0.456, -3.890e-9
0.457, -3.890e-9
0.458, -3.892e-9
0.459, -3.893e-9
0.460, -3.894e-9
0.461, -3.895e-9
0.462, -3.896e-9
0.463, -3.898e-9
0.464, -3.899e-9
0.465, -3.899e-9
0.466, -3.901e-9
0.467, -3.902e-9
0.468, -3.905e-9
0.469, -3.905e-9
0.470, -3.906e-9
0.471, -3.908e-9
0.472, -3.909e-9
0.473, -3.911e-9
0.474, -3.911e-9
0.475, -3.913e-9
0.476, -3.915e-9
0.477, -3.915e-9
0.478, -3.917e-9
0.479, -3.919e-9
0.480, -3.920e-9
0.481, -3.921e-9
0.482, -3.922e-9
0.483, -3.924e-9
0.484, -3.924e-9
0.485, -3.925e-9
0.486, -3.927e-9
0.487, -3.927e-9
0.488, -3.930e-9
0.489, -3.931e-9
0.490, -3.933e-9
0.491, -3.934e-9
0.492, -3.933e-9
0.493, -3.935e-9
0.494, -3.936e-9
0.495, -3.937e-9
0.496, -3.939e-9
0.497, -3.939e-9
0.498, -3.940e-9
0.499, -3.941e-9
0.500, -3.942e-9
0.501, -3.944e-9
0.502, -3.944e-9
0.503, -3.946e-9
0.504, -3.946e-9
0.505, -3.948e-9
0.506, -3.948e-9
0.507, -3.948e-9
0.508, -3.950e-9
0.509, -3.950e-9
0.510, -3.950e-9
0.511, -3.952e-9
0.512, -3.951e-9
0.513, -3.953e-9
0.514, -3.955e-9
0.515, -3.956e-9
0.516, -3.956e-9
0.517, -3.956e-9
0.518, -3.956e-9
0.519, -3.957e-9
0.520, -3.958e-9
0.521, -3.960e-9
0.522, -3.960e-9
0.523, -3.961e-9
0.524, -3.961e-9
0.525, -3.962e-9
0.526, -3.964e-9
0.527, -3.965e-9
0.528, -3.966e-9
0.529, -3.966e-9
0.530, -3.967e-9
0.531, -3.969e-9
0.532, -3.970e-9
0.533, -3.970e-9
0.534, -3.971e-9
0.535, -3.971e-9
0.536, -3.972e-9
0.537, -3.972e-9
0.538, -3.974e-9
0.539, -3.975e-9
0.540, -3.975e-9
0.541, -3.977e-9
0.542, -3.977e-9
0.543, -3.979e-9
0.544, -3.979e-9
0.545, -3.980e-9
0.546, -3.981e-9
0.547, -3.981e-9
0.548, -3.983e-9
0.549, -3.984e-9
0.550, -3.985e-9
0.551, -3.986e-9
0.552, -3.986e-9
0.553, -3.987e-9
0.554, -3.987e-9
0.555, -3.988e-9
0.556, -3.990e-9
0.557, -3.991e-9
0.558, -3.992e-9
0.559, -3.993e-9
0.560, -3.993e-9
0.561, -3.995e-9
0.562, -3.995e-9
0.563, -3.997e-9
0.564, -3.998e-9
0.565, -4.000e-9
0.566, -4.000e-9
0.567, -3.999e-9
0.568, -4.001e-9
0.569, -4.007e-9
0.570, -4.011e-9
0.571, -4.009e-9
0.572, -4.007e-9
0.573, -4.007e-9
0.574, -4.008e-9
0.575, -4.009e-9
0.576, -4.010e-9
0.577, -4.010e-9
0.578, -4.012e-9
0.579, -4.013e-9
0.580, -4.013e-9
0.581, -4.015e-9
0.582, -4.017e-9
0.583, -4.019e-9
0.584, -4.019e-9
0.585, -4.021e-9
0.586, -4.022e-9
0.587, -4.023e-9
0.588, -4.025e-9
0.589, -4.025e-9
0.590, -4.027e-9
0.591, -4.028e-9
0.592, -4.028e-9
0.593, -4.030e-9
0.594, -4.031e-9
0.595, -4.033e-9
0.596, -4.034e-9
0.597, -4.034e-9
0.598, -4.036e-9
0.599, -4.038e-9
0.600, -4.039e-9
0.601, -4.041e-9
0.602, -4.041e-9
0.603, -4.047e-9
0.604, -4.049e-9
0.605, -4.048e-9
0.606, -4.048e-9
0.607, -4.047e-9
0.608, -4.048e-9
0.609, -4.050e-9
0.610, -4.050e-9
0.611, -4.053e-9
0.612, -4.054e-9
0.613, -4.056e-9
0.614, -4.057e-9
0.615, -4.058e-9
0.616, -4.061e-9
0.617, -4.062e-9
0.618, -4.063e-9
0.619, -4.064e-9
0.620, -4.066e-9
0.621, -4.068e-9
0.622, -4.069e-9
0.623, -4.072e-9
0.624, -4.074e-9
0.625, -4.075e-9
0.626, -4.076e-9
0.627, -4.076e-9
0.628, -4.079e-9
0.629, -4.081e-9
0.630, -4.083e-9
0.631, -4.085e-9
0.632, -4.085e-9
0.633, -4.087e-9
0.634, -4.088e-9
0.635, -4.090e-9
0.636, -4.093e-9
0.637, -4.099e-9
0.638, -4.100e-9
0.639, -4.099e-9
0.640, -4.100e-9
0.641, -4.100e-9
0.642, -4.101e-9
0.643, -4.104e-9
0.644, -4.104e-9
0.645, -4.106e-9
0.646, -4.109e-9
0.647, -4.110e-9
0.648, -4.112e-9
0.649, -4.114e-9
0.650, -4.116e-9
0.651, -4.118e-9
0.652, -4.120e-9
0.653, -4.122e-9
0.654, -4.124e-9
0.655, -4.126e-9
0.656, -4.129e-9
0.657, -4.129e-9
0.658, -4.132e-9
0.659, -4.134e-9
0.660, -4.136e-9
0.661, -4.138e-9
0.662, -4.139e-9
0.663, -4.141e-9
0.664, -4.143e-9
0.665, -4.145e-9
0.666, -4.147e-9
0.667, -4.152e-9
0.668, -4.157e-9
0.669, -4.156e-9
0.670, -4.156e-9
0.671, -4.158e-9
0.672, -4.159e-9
0.673, -4.162e-9
0.674, -4.164e-9
0.675, -4.166e-9
0.676, -4.169e-9
0.677, -4.171e-9
0.678, -4.173e-9
0.679, -4.174e-9
0.680, -4.177e-9
0.681, -4.180e-9
0.682, -4.182e-9
0.683, -4.184e-9
0.684, -4.186e-9
0.685, -4.189e-9
0.686, -4.192e-9
0.687, -4.193e-9
0.688, -4.196e-9
0.689, -4.198e-9
0.690, -4.200e-9
0.691, -4.203e-9
0.692, -4.205e-9
0.693, -4.208e-9
0.694, -4.209e-9
0.695, -4.211e-9
0.696, -4.215e-9
0.697, -4.217e-9
0.698, -4.220e-9
0.699, -4.222e-9
0.700, -4.225e-9
0.701, -4.229e-9
0.702, -4.236e-9
0.703, -4.237e-9
0.704, -4.235e-9
0.705, -4.237e-9
0.706, -4.240e-9
0.707, -4.242e-9
0.708, -4.244e-9
0.709, -4.247e-9
0.710, -4.250e-9
0.711, -4.254e-9
0.712, -4.257e-9
0.713, -4.260e-9
0.714, -4.262e-9
0.715, -4.264e-9
0.716, -4.267e-9
0.717, -4.269e-9
0.718, -4.273e-9
0.719, -4.276e-9
0.720, -4.279e-9
0.721, -4.283e-9
0.722, -4.285e-9
0.723, -4.289e-9
0.724, -4.292e-9
0.725, -4.294e-9
0.726, -4.297e-9
0.727, -4.299e-9
0.728, -4.303e-9
0.729, -4.306e-9
0.730, -4.310e-9
0.731, -4.313e-9
0.732, -4.316e-9
0.733, -4.320e-9
0.734, -4.327e-9
0.735, -4.328e-9
0.736, -4.329e-9
0.737, -4.331e-9
0.738, -4.333e-9
0.739, -4.336e-9
0.740, -4.340e-9
0.741, -4.344e-9
0.742, -4.348e-9
0.743, -4.352e-9
0.744, -4.355e-9
0.745, -4.358e-9
0.746, -4.361e-9
0.747, -4.364e-9
0.748, -4.368e-9
0.749, -4.371e-9
0.750, -4.374e-9
0.751, -4.379e-9
0.752, -4.382e-9
0.753, -4.387e-9
0.754, -4.389e-9
0.755, -4.392e-9
0.756, -4.397e-9
0.757, -4.400e-9
0.758, -4.404e-9
0.759, -4.407e-9
0.760, -4.411e-9
0.761, -4.415e-9
0.762, -4.417e-9
0.763, -4.422e-9
0.764, -4.427e-9
0.765, -4.436e-9
0.766, -4.438e-9
0.767, -4.438e-9
0.768, -4.441e-9
0.769, -4.444e-9
0.770, -4.448e-9
0.771, -4.454e-9
0.772, -4.456e-9
0.773, -4.460e-9
0.774, -4.464e-9
0.775, -4.468e-9
0.776, -4.473e-9
0.777, -4.477e-9
0.778, -4.482e-9
0.779, -4.486e-9
0.780, -4.489e-9
0.781, -4.493e-9
0.782, -4.497e-9
0.783, -4.504e-9
0.784, -4.507e-9
0.785, -4.511e-9
0.786, -4.515e-9
0.787, -4.519e-9
0.788, -4.524e-9
0.789, -4.528e-9
0.790, -4.533e-9
0.791, -4.539e-9
0.792, -4.542e-9
0.793, -4.547e-9
0.794, -4.551e-9
0.795, -4.561e-9
0.796, -4.565e-9
0.797, -4.566e-9
0.798, -4.570e-9
0.799, -4.575e-9
0.800, -4.562e-9
0.799, -4.508e-9
0.798, -4.459e-9
0.797, -4.421e-9
0.796, -4.387e-9
0.795, -4.357e-9
0.794, -4.330e-9
0.793, -4.303e-9
0.792, -4.279e-9
0.791, -4.255e-9
0.790, -4.233e-9
0.789, -4.213e-9
0.788, -4.193e-9
0.787, -4.175e-9
0.786, -4.157e-9
0.785, -4.138e-9
0.784, -4.122e-9
0.783, -4.109e-9
0.782, -4.094e-9
0.781, -4.078e-9
0.780, -4.061e-9
0.779, -4.045e-9
0.778, -4.030e-9
0.777, -4.018e-9
0.776, -4.004e-9
0.775, -3.992e-9
0.774, -3.980e-9
0.773, -3.968e-9
0.772, -3.956e-9
0.771, -3.944e-9
0.770, -3.933e-9
0.769, -3.922e-9
0.768, -3.911e-9
0.767, -3.902e-9
0.766, -3.892e-9
0.765, -3.882e-9
0.764, -3.873e-9
0.763, -3.863e-9
0.762, -3.854e-9
0.761, -3.845e-9
0.760, -3.837e-9
0.759, -3.829e-9
0.758, -3.821e-9
0.757, -3.813e-9
0.756, -3.803e-9
0.755, -3.796e-9
0.754, -3.788e-9
0.753, -3.780e-9
0.752, -3.777e-9
0.751, -3.770e-9
0.750, -3.761e-9
0.749, -3.753e-9
0.748, -3.745e-9
0.747, -3.739e-9
0.746, -3.732e-9
0.745, -3.726e-9
0.744, -3.721e-9
0.743, -3.714e-9
0.742, -3.709e-9
0.741, -3.702e-9
0.740, -3.696e-9
0.739, -3.691e-9
0.738, -3.684e-9
0.737, -3.680e-9
0.736, -3.675e-9
0.735, -3.670e-9
0.734, -3.664e-9
0.733, -3.659e-9
0.732, -3.655e-9
0.731, -3.649e-9
0.730, -3.644e-9
0.729, -3.640e-9
0.728, -3.634e-9
0.727, -3.630e-9
0.726, -3.628e-9
0.725, -3.622e-9
0.724, -3.616e-9
0.723, -3.610e-9
0.722, -3.607e-9
0.721, -3.602e-9
0.720, -3.598e-9
0.719, -3.594e-9
0.718, -3.591e-9
0.717, -3.587e-9
0.716, -3.582e-9
0.715, -3.578e-9
0.714, -3.574e-9
0.713, -3.570e-9
0.712, -3.567e-9
0.711, -3.563e-9
0.710, -3.559e-9
0.709, -3.555e-9
0.708, -3.551e-9
0.707, -3.548e-9
0.706, -3.544e-9
0.705, -3.542e-9
0.704, -3.539e-9
0.703, -3.535e-9
0.702, -3.532e-9
0.701, -3.528e-9
0.700, -3.525e-9
0.699, -3.522e-9
0.698, -3.518e-9
0.697, -3.516e-9
0.696, -3.513e-9
0.695, -3.514e-9
0.694, -3.511e-9
0.693, -3.505e-9
0.692, -3.500e-9
0.691, -3.497e-9
0.690, -3.495e-9
0.689, -3.492e-9
0.688, -3.489e-9
0.687, -3.487e-9
0.686, -3.484e-9
0.685, -3.481e-9
0.684, -3.478e-9
0.683, -3.475e-9
0.682, -3.473e-9
0.681, -3.470e-9
0.680, -3.468e-9
0.679, -3.467e-9
0.678, -3.464e-9
0.677, -3.461e-9
0.676, -3.458e-9
0.675, -3.456e-9
0.674, -3.455e-9
0.673, -3.452e-9
0.672, -3.449e-9
0.671, -3.445e-9
0.670, -3.442e-9
0.669, -3.441e-9
0.668, -3.439e-9
0.667, -3.438e-9
0.666, -3.438e-9
0.665, -3.434e-9
0.664, -3.430e-9
0.663, -3.427e-9
0.662, -3.425e-9
0.661, -3.422e-9
0.660, -3.420e-9
0.659, -3.419e-9
0.658, -3.416e-9
0.657, -3.415e-9
0.656, -3.412e-9
0.655, -3.410e-9
0.654, -3.409e-9
0.653, -3.407e-9
0.652, -3.406e-9
0.651, -3.402e-9
0.650, -3.400e-9
0.649, -3.398e-9
0.648, -3.396e-9
0.647, -3.394e-9
0.646, -3.392e-9
0.645, -3.390e-9
0.644, -3.389e-9
0.643, -3.387e-9
0.642, -3.386e-9
0.641, -3.383e-9
0.640, -3.381e-9
0.639, -3.379e-9
0.638, -3.379e-9
0.637, -3.379e-9
0.636, -3.375e-9
0.635, -3.372e-9
0.634, -3.370e-9
0.633, -3.368e-9
0.632, -3.367e-9
0.631, -3.365e-9
0.630, -3.364e-9
0.629, -3.362e-9
0.628, -3.360e-9
0.627, -3.359e-9
0.626, -3.357e-9
0.625, -3.355e-9
0.624, -3.353e-9
0.623, -3.350e-9
0.622, -3.350e-9
0.621, -3.348e-9
0.620, -3.346e-9
0.619, -3.344e-9
0.618, -3.341e-9
0.617, -3.341e-9
0.616, -3.339e-9
0.615, -3.337e-9
0.614, -3.337e-9
0.613, -3.334e-9
0.612, -3.333e-9
0.611, -3.331e-9
0.610, -3.330e-9
0.609, -3.328e-9
0.608, -3.329e-9
0.607, -3.330e-9
0.606, -3.325e-9
0.605, -3.323e-9
0.604, -3.320e-9
0.603, -3.317e-9
0.602, -3.317e-9
0.601, -3.315e-9
0.600, -3.314e-9
0.599, -3.312e-9
0.598, -3.310e-9
0.597, -3.310e-9
0.596, -3.308e-9
0.595, -3.307e-9
0.594, -3.306e-9
0.593, -3.303e-9
0.592, -3.301e-9
0.591, -3.299e-9
0.590, -3.298e-9
0.589, -3.298e-9
0.588, -3.296e-9
0.587, -3.296e-9
0.586, -3.294e-9
0.585, -3.292e-9
0.584, -3.291e-9
0.583, -3.288e-9
0.582, -3.288e-9
0.581, -3.285e-9
0.580, -3.285e-9
0.579, -3.284e-9
0.578, -3.283e-9
0.577, -3.286e-9
0.576, -3.283e-9
0.575, -3.279e-9
0.574, -3.276e-9
0.573, -3.273e-9
0.572, -3.272e-9
0.571, -3.271e-9
0.570, -3.269e-9
0.569, -3.269e-9
0.568, -3.267e-9
0.567, -3.266e-9
0.566, -3.265e-9
0.565, -3.263e-9
0.564, -3.262e-9
0.563, -3.261e-9
0.562, -3.260e-9
0.561, -3.259e-9
0.560, -3.257e-9
0.559, -3.255e-9
0.558, -3.254e-9
0.557, -3.254e-9
0.556, -3.251e-9
0.555, -3.250e-9
0.554, -3.249e-9
0.553, -3.247e-9
0.552, -3.246e-9
0.551, -3.245e-9
0.550, -3.247e-9
0.549, -3.244e-9
0.548, -3.241e-9
0.547, -3.240e-9
0.546, -3.237e-9
0.545, -3.235e-9
0.544, -3.235e-9
0.543, -3.233e-9
0.542, -3.233e-9
0.541, -3.231e-9
0.540, -3.230e-9
0.539, -3.229e-9
0.538, -3.225e-9
0.537, -3.226e-9
0.536, -3.224e-9
0.535, -3.223e-9
0.534, -3.222e-9
0.533, -3.219e-9
0.532, -3.219e-9
0.531, -3.218e-9
0.530, -3.216e-9
0.529, -3.215e-9
0.528, -3.213e-9
0.527, -3.213e-9
0.526, -3.215e-9
0.525, -3.213e-9
0.524, -3.209e-9
0.523, -3.207e-9
0.522, -3.206e-9
0.521, -3.204e-9
0.520, -3.203e-9
0.519, -3.202e-9
0.518, -3.200e-9
0.517, -3.200e-9
0.516, -3.197e-9
0.515, -3.196e-9
0.514, -3.195e-9
0.513, -3.193e-9
0.512, -3.193e-9
0.511, -3.191e-9
0.510, -3.191e-9
0.509, -3.190e-9
0.508, -3.187e-9
0.507, -3.187e-9
0.506, -3.184e-9
0.505, -3.183e-9
0.504, -3.181e-9
0.503, -3.179e-9
0.502, -3.180e-9
0.501, -3.180e-9
0.500, -3.178e-9
0.499, -3.176e-9
0.498, -3.173e-9
0.497, -3.172e-9
0.496, -3.170e-9
0.495, -3.168e-9
0.494, -3.168e-9
0.493, -3.166e-9
0.492, -3.165e-9
0.491, -3.164e-9
0.490, -3.163e-9
0.489, -3.163e-9
0.488, -3.160e-9
0.487, -3.159e-9
0.486, -3.157e-9
0.485, -3.156e-9
0.484, -3.155e-9
0.483, -3.153e-9
0.482, -3.152e-9
0.481, -3.150e-9
0.480, -3.148e-9
0.479, -3.147e-9
0.478, -3.145e-9
0.477, -3.144e-9
0.476, -3.142e-9
0.475, -3.143e-9
0.474, -3.144e-9
0.473, -3.141e-9
0.472, -3.139e-9
0.471, -3.136e-9
0.470, -3.136e-9
0.469, -3.135e-9
0.468, -3.132e-9
0.467, -3.132e-9
0.466, -3.130e-9
0.465, -3.129e-9
0.464, -3.127e-9
0.463, -3.126e-9
0.462, -3.126e-9
0.461, -3.124e-9
0.460, -3.123e-9
0.459, -3.121e-9
0.458, -3.120e-9
0.457, -3.119e-9
0.456, -3.117e-9
0.455, -3.116e-9
0.454, -3.116e-9
0.453, -3.114e-9
0.452, -3.114e-9
0.451, -3.112e-9
0.450, -3.112e-9
0.449, -3.111e-9
0.448, -3.109e-9
0.447, -3.108e-9
0.446, -3.107e-9
0.445, -3.106e-9
0.444, -3.106e-9
0.443, -3.103e-9
0.442, -3.103e-9
0.441, -3.102e-9
0.440, -3.102e-9
0.439, -3.101e-9
0.438, -3.100e-9
0.437, -3.099e-9
0.436, -3.097e-9
0.435, -3.097e-9
0.434, -3.095e-9
0.433, -3.094e-9
0.432, -3.095e-9
0.431, -3.095e-9
0.430, -3.095e-9
0.429, -3.093e-9
0.428, -3.090e-9
0.427, -3.090e-9
0.426, -3.087e-9
0.425, -3.086e-9
0.424, -3.086e-9
0.423, -3.084e-9
0.422, -3.084e-9
0.421, -3.083e-9
0.420, -3.082e-9
0.419, -3.081e-9
0.418, -3.079e-9
0.417, -3.079e-9
0.416, -3.077e-9
0.415, -3.077e-9
0.414, -3.077e-9
0.413, -3.075e-9
0.412, -3.073e-9
0.411, -3.072e-9
0.410, -3.071e-9
0.409, -3.070e-9
0.408, -3.069e-9
0.407, -3.069e-9
0.406, -3.068e-9
0.405, -3.067e-9
0.404, -3.066e-9
0.403, -3.065e-9
0.402, -3.064e-9
0.401, -3.062e-9
0.400, -3.061e-9
0.399, -3.060e-9
0.398, -3.058e-9
0.397, -3.058e-9
0.396, -3.056e-9
0.395, -3.056e-9
0.394, -3.055e-9
0.393, -3.053e-9
0.392, -3.052e-9
0.391, -3.051e-9
0.390, -3.049e-9
0.389, -3.048e-9
0.388, -3.045e-9
0.387, -3.046e-9
0.386, -3.044e-9
0.385, -3.043e-9
0.384, -3.042e-9
0.383, -3.039e-9
0.382, -3.039e-9
0.381, -3.037e-9
0.380, -3.036e-9
0.379, -3.035e-9
0.378, -3.033e-9
0.377, -3.032e-9
0.376, -3.030e-9
0.375, -3.029e-9
0.374, -3.028e-9
0.373, -3.025e-9
0.372, -3.023e-9
0.371, -3.021e-9
0.370, -3.021e-9
0.369, -3.019e-9
0.368, -3.016e-9
0.367, -3.016e-9
0.366, -3.014e-9
0.365, -3.012e-9
0.364, -3.012e-9
0.363, -3.010e-9
0.362, -3.009e-9
0.361, -3.006e-9
0.360, -3.005e-9
0.359, -3.004e-9
0.358, -3.002e-9
0.357, -3.000e-9
0.356, -2.997e-9
0.355, -2.995e-9
0.354, -2.994e-9
0.353, -2.992e-9
0.352, -2.991e-9
0.351, -2.987e-9
0.350, -2.985e-9
0.349, -2.983e-9
0.348, -2.981e-9
0.347, -2.981e-9
0.346, -2.978e-9
0.345, -2.975e-9
0.344, -2.973e-9
0.343, -2.970e-9
0.342, -2.970e-9
0.341, -2.966e-9
0.340, -2.964e-9
0.339, -2.962e-9
0.338, -2.958e-9
0.337, -2.957e-9
0.336, -2.953e-9
0.335, -2.950e-9
0.334, -2.948e-9
0.333, -2.944e-9
0.332, -2.942e-9
0.331, -2.937e-9
0.330, -2.934e-9
0.329, -2.931e-9
0.328, -2.928e-9
0.327, -2.926e-9
0.326, -2.922e-9
0.325, -2.918e-9
0.324, -2.915e-9
0.323, -2.911e-9
0.322, -2.908e-9
0.321, -2.904e-9
0.320, -2.900e-9
0.319, -2.896e-9
0.318, -2.891e-9
0.317, -2.887e-9
0.316, -2.882e-9
0.315, -2.877e-9
0.314, -2.873e-9
0.313, -2.868e-9
0.312, -2.864e-9
0.311, -2.858e-9
0.310, -2.854e-9
0.309, -2.848e-9
0.308, -2.841e-9
0.307, -2.836e-9
0.306, -2.829e-9
0.305, -2.824e-9
0.304, -2.818e-9
0.303, -2.811e-9
0.302, -2.805e-9
0.301, -2.798e-9
0.300, -2.791e-9
0.299, -2.783e-9
0.298, -2.775e-9
0.297, -2.768e-9
0.296, -2.760e-9
0.295, -2.752e-9
0.294, -2.744e-9
0.293, -2.735e-9
0.292, -2.727e-9
0.291, -2.718e-9
0.290, -2.708e-9
0.289, -2.698e-9
0.288, -2.687e-9
0.287, -2.678e-9
0.286, -2.666e-9
0.285, -2.655e-9
0.284, -2.644e-9
0.283, -2.632e-9
0.282, -2.622e-9
0.281, -2.609e-9
0.280, -2.597e-9
0.279, -2.583e-9
0.278, -2.569e-9
0.277, -2.555e-9
0.276, -2.541e-9
0.275, -2.527e-9
0.274, -2.512e-9
0.273, -2.495e-9
0.272, -2.480e-9
0.271, -2.463e-9
0.270, -2.445e-9
0.269, -2.428e-9
0.268, -2.410e-9
0.267, -2.392e-9
0.266, -2.372e-9
0.265, -2.353e-9
0.264, -2.333e-9
0.263, -2.312e-9
0.262, -2.292e-9
0.261, -2.270e-9
0.260, -2.249e-9
0.259, -2.226e-9
0.258, -2.202e-9
0.257, -2.179e-9
0.256, -2.153e-9
0.255, -2.128e-9
0.254, -2.102e-9
0.253, -2.075e-9
0.252, -2.049e-9
0.251, -2.021e-9
0.250, -1.993e-9
0.249, -1.966e-9
0.248, -1.936e-9
0.247, -1.907e-9
0.246, -1.876e-9
0.245, -1.846e-9
0.244, -1.815e-9
0.243, -1.783e-9
0.242, -1.751e-9
0.241, -1.717e-9
0.240, -1.684e-9
0.239, -1.650e-9
0.238, -1.615e-9
0.237, -1.581e-9
0.236, -1.544e-9
0.235, -1.509e-9
0.234, -1.473e-9
0.233, -1.435e-9
0.232, -1.399e-9
0.231, -1.361e-9
0.230, -1.324e-9
0.229, -1.286e-9
0.228, -1.247e-9
0.227, -1.210e-9
0.226, -1.169e-9
0.225, -1.131e-9
0.224, -1.093e-9
0.223, -1.053e-9
0.222, -1.014e-9
0.221, -9.742e-10
0.220, -9.350e-10
0.219, -8.953e-10
0.218, -8.546e-10
0.217, -8.163e-10
0.216, -7.764e-10
0.215, -7.373e-10
0.214, -6.991e-10
0.213, -6.592e-10
0.212, -6.223e-10
0.211, -5.837e-10
0.210, -5.459e-10
0.209, -5.088e-10
0.208, -4.714e-10
0.207, -4.352e-10
0.206, -3.976e-10
0.205, -3.610e-10
0.204, -3.254e-10
0.203, -2.901e-10
0.202, -2.560e-10
0.201, -2.218e-10
0.200, -1.892e-10
0.199, -1.562e-10
0.198, -1.234e-10
0.197, -9.268e-11
0.196, -6.126e-11
0.195, -3.126e-11
0.194, -1.591e-12
0.193, 2.801e-11
0.192, 5.557e-11
0.191, 8.415e-11
0.190, 1.105e-10
0.189, 1.369e-10
0.188, 1.635e-10
0.187, 1.879e-10
0.186, 2.130e-10
0.185, 2.359e-10
0.184, 2.586e-10
0.183, 2.820e-10
0.182, 3.027e-10
0.181, 3.246e-10
0.180, 3.444e-10
0.179, 3.639e-10
0.178, 3.836e-10
0.177, 4.011e-10
0.176, 4.196e-10
0.175, 4.363e-10
0.174, 4.526e-10
0.173, 4.691e-10
0.172, 4.831e-10
0.171, 4.985e-10
0.170, 5.125e-10
0.169, 5.260e-10
0.168, 5.397e-10
0.167, 5.518e-10
0.166, 5.646e-10
0.165, 5.763e-10
0.164, 5.871e-10
0.163, 5.980e-10
0.162, 6.073e-10
0.161, 6.182e-10
0.160, 6.274e-10
0.159, 6.361e-10
0.158, 6.449e-10
0.157, 6.523e-10
0.156, 6.612e-10
0.155, 6.685e-10
0.154, 6.758e-10
0.153, 6.830e-10
0.152, 6.888e-10
0.151, 6.960e-10
0.150, 7.013e-10
0.149, 7.067e-10
0.148, 7.124e-10
0.147, 7.165e-10
0.146, 7.225e-10
0.145, 7.268e-10
0.144, 7.311e-10
0.143, 7.359e-10
0.142, 7.391e-10
0.141, 7.439e-10
0.140, 7.469e-10
0.139, 7.501e-10
0.138, 7.539e-10
0.137, 7.559e-10
0.136, 7.595e-10
0.135, 7.617e-10
0.134, 7.639e-10
0.133, 7.667e-10
0.132, 7.682e-10
0.131, 7.709e-10
0.130, 7.730e-10
0.129, 7.750e-10
0.128, 7.774e-10
0.127, 7.786e-10
0.126, 7.808e-10
0.125, 7.825e-10
0.124, 7.841e-10
0.123, 7.859e-10
0.122, 7.864e-10
0.121, 7.880e-10
0.120, 7.889e-10
0.119, 7.905e-10
0.118, 7.921e-10
0.117, 7.923e-10
0.116, 7.938e-10
0.115, 7.944e-10
0.114, 7.956e-10
0.113, 7.969e-10
0.112, 7.968e-10
0.111, 7.988e-10
0.110, 7.991e-10
0.109, 7.995e-10
0.108, 8.010e-10
0.107, 8.008e-10
0.106, 8.025e-10
0.105, 8.026e-10
0.104, 8.033e-10
0.103, 8.047e-10
0.102, 8.044e-10
0.101, 8.060e-10
0.100, 8.063e-10
0.099, 8.066e-10
0.098, 8.082e-10
0.097, 8.081e-10
0.096, 8.094e-10
0.095, 8.094e-10
0.094, 8.102e-10
0.093, 8.118e-10
0.092, 8.120e-10
0.091, 8.133e-10
0.090, 8.135e-10
0.089, 8.139e-10
0.088, 8.151e-10
0.087, 8.154e-10
0.086, 8.168e-10
0.085, 8.169e-10
0.084, 8.175e-10
0.083, 8.187e-10
0.082, 8.190e-10
0.081, 8.204e-10
0.080, 8.205e-10
0.079, 8.218e-10
0.078, 8.229e-10
0.077, 8.229e-10
0.076, 8.245e-10
0.075, 8.251e-10
0.074, 8.263e-10
0.073, 8.277e-10
0.072, 8.282e-10
0.071, 8.298e-10
0.070, 8.299e-10
0.069, 8.310e-10
0.068, 8.329e-10
0.067, 8.334e-10
0.066, 8.354e-10
0.065, 8.360e-10
0.064, 8.371e-10
0.063, 8.390e-10
0.062, 8.394e-10
0.061, 8.417e-10
0.060, 8.430e-10
0.059, 8.442e-10
0.058, 8.460e-10
0.057, 8.463e-10
0.056, 8.485e-10
0.055, 8.497e-10
0.054, 8.514e-10
0.053, 8.538e-10
0.052, 8.549e-10
0.051, 8.573e-10
0.050, 8.586e-10
0.049, 8.601e-10
0.048, 8.623e-10
0.047, 8.634e-10
0.046, 8.662e-10
0.045, 8.678e-10
0.044, 8.695e-10
0.043, 8.718e-10
0.042, 8.735e-10
0.041, 8.764e-10
0.040, 8.782e-10
0.039, 8.802e-10
0.038, 8.825e-10
0.037, 8.840e-10
0.036, 8.869e-10
0.035, 8.889e-10
0.034, 8.914e-10
0.033, 8.945e-10
0.032, 8.959e-10
0.031, 8.994e-10
0.030, 9.015e-10
0.029, 9.042e-10
0.028, 9.075e-10
0.027, 9.092e-10
0.026, 9.129e-10
0.025, 9.152e-10
0.024, 9.175e-10
0.023, 9.209e-10
0.022, 9.227e-10
0.021, 9.265e-10
0.020, 9.292e-10
0.019, 9.319e-10
0.018, 9.356e-10
0.017, 9.381e-10
0.016, 9.423e-10
0.015, 9.452e-10
0.014, 9.482e-10
0.013, 9.519e-10
0.012, 9.545e-10
0.011, 9.588e-10
0.010, 9.621e-10
0.009, 9.657e-10
0.008, 9.701e-10
0.007, 9.731e-10
0.006, 9.775e-10
0.005, 9.808e-10
0.004, 9.847e-10
0.003, 9.890e-10
0.002, 9.921e-10
0.001, 9.967e-10
