Results:

Channel 1:
Segment 1:

Segment 2:

Potential/V, Current/A

0.000, 1.555e-9
0.001, 1.454e-9
0.002, 1.384e-9
0.003, 1.327e-9
0.004, 1.277e-9
0.005, 1.232e-9
0.006, 1.190e-9
0.007, 1.149e-9
0.008, 1.110e-9
0.009, 1.073e-9
0.010, 1.036e-9
0.011, 1.003e-9
0.012, 9.680e-10
0.013, 9.357e-10
0.014, 9.037e-10
0.015, 8.713e-10
0.016, 8.428e-10
0.017, 8.124e-10
0.018, 7.841e-10
0.019, 7.559e-10
0.020, 7.254e-10
0.021, 6.994e-10
0.022, 6.733e-10
0.023, 6.452e-10
0.024, 6.206e-10
0.025, 5.935e-10
0.026, 5.681e-10
0.027, 5.437e-10
0.028, 5.182e-10
0.029, 4.950e-10
0.030, 4.702e-10
0.031, 4.472e-10
0.032, 4.243e-10
0.033, 4.007e-10
0.034, 3.789e-10
0.035, 3.559e-10
0.036, 3.343e-10
0.037, 3.127e-10
0.038, 2.907e-10
0.039, 2.693e-10
0.040, 2.472e-10
0.041, 2.269e-10
0.042, 2.063e-10
0.043, 1.864e-10
0.044, 1.654e-10
0.045, 1.456e-10
0.046, 1.266e-10
0.047, 1.067e-10
0.048, 8.795e-11
0.049, 6.906e-11
0.050, 4.947e-11
0.051, 3.159e-11
0.052, 1.260e-11
0.053, -5.656e-12
0.054, -2.309e-11
0.055, -4.279e-11
0.056, -5.842e-11
0.057, -7.664e-11
0.058, -9.459e-11
0.059, -1.114e-10
0.060, -1.291e-10
0.061, -1.444e-10
0.062, -1.611e-10
0.063, -1.787e-10
0.064, -1.940e-10
0.065, -2.111e-10
0.066, -2.278e-10
0.067, -2.436e-10
0.068, -2.605e-10
0.069, -2.754e-10
0.070, -2.916e-10
0.071, -3.068e-10
0.072, -3.220e-10
0.073, -3.372e-10
0.074, -3.519e-10
0.075, -3.688e-10
0.076, -3.829e-10
0.077, -3.973e-10
0.078, -4.128e-10
0.079, -4.267e-10
0.080, -4.420e-10
0.081, -4.557e-10
0.082, -4.702e-10
0.083, -4.851e-10
0.084, -4.985e-10
0.085, -5.143e-10
0.086, -5.275e-10
0.087, -5.419e-10
0.088, -5.555e-10
0.089, -5.691e-10
0.090, -5.826e-10
0.091, -5.963e-10
0.092, -6.101e-10
0.093, -6.232e-10
0.094, -6.364e-10
0.095, -6.506e-10
0.096, -6.625e-10
0.097, -6.766e-10
0.098, -6.889e-10
0.099, -7.014e-10
0.100, -7.164e-10
0.101, -7.271e-10
0.102, -7.413e-10
0.103, -7.544e-10
0.104, -7.660e-10
0.105, -7.802e-10
0.106, -7.911e-10
0.107, -8.043e-10
0.108, -8.165e-10
0.109, -8.280e-10
0.110, -8.421e-10
0.111, -8.536e-10
0.112, -8.655e-10
0.113, -8.792e-10
0.114, -8.892e-10
0.115, -9.020e-10
0.116, -9.140e-10
0.117, -9.251e-10
0.118, -9.382e-10
0.119, -9.493e-10
0.120, -9.622e-10
0.121, -9.728e-10
0.122, -9.842e-10
0.123, -9.963e-10
0.124, -1.008e-9
0.125, -1.020e-9
0.126, -1.030e-9
0.127, -1.042e-9
0.128, -1.053e-9
0.129, -1.065e-9
0.130, -1.077e-9
0.131, -1.088e-9
0.132, -1.100e-9
0.133, -1.111e-9
0.134, -1.122e-9
0.135, -1.135e-9
0.136, -1.145e-9
0.137, -1.158e-9
0.138, -1.169e-9
0.139, -1.181e-9
0.140, -1.194e-9
0.141, -1.204e-9
0.142, -1.217e-9
0.143, -1.230e-9
0.144, -1.242e-9
0.145, -1.255e-9
0.146, -1.267e-9
0.147, -1.280e-9
0.148, -1.294e-9
0.149, -1.306e-9
0.150, -1.320e-9
0.151, -1.332e-9
0.152, -1.345e-9
0.153, -1.359e-9
0.154, -1.373e-9
0.155, -1.387e-9
0.156, -1.400e-9
0.157, -1.415e-9
0.158, -1.429e-9
0.159, -1.443e-9
0.160, -1.458e-9
0.161, -1.472e-9
0.162, -1.487e-9
0.163, -1.503e-9
0.164, -1.518e-9
0.165, -1.533e-9
0.166, -1.549e-9
0.167, -1.565e-9
0.168, -1.581e-9
0.169, -1.596e-9
0.170, -1.614e-9
0.171, -1.629e-9
0.172, -1.647e-9
0.173, -1.663e-9
0.174, -1.679e-9
0.175, -1.699e-9
0.176, -1.715e-9
0.177, -1.733e-9
0.178, -1.752e-9
0.179, -1.770e-9
0.180, -1.789e-9
0.181, -1.806e-9
0.182, -1.826e-9
0.183, -1.846e-9
0.184, -1.863e-9
0.185, -1.884e-9
0.186, -1.903e-9
0.187, -1.923e-9
0.188, -1.943e-9
0.189, -1.961e-9
0.190, -1.983e-9
0.191, -2.002e-9
0.192, -2.023e-9
0.193, -2.044e-9
0.194, -2.064e-9
0.195, -2.086e-9
0.196, -2.106e-9
0.197, -2.126e-9
0.198, -2.147e-9
0.199, -2.169e-9
0.200, -2.190e-9
0.201, -2.211e-9
0.202, -2.231e-9
0.203, -2.251e-9
0.204, -2.273e-9
0.205, -2.296e-9
0.206, -2.316e-9
0.207, -2.337e-9
0.208, -2.358e-9
0.209, -2.379e-9
0.210, -2.399e-9
0.211, -2.417e-9
0.212, -2.439e-9
0.213, -2.460e-9
0.214, -2.480e-9
0.215, -2.500e-9
0.216, -2.518e-9
0.217, -2.540e-9
0.218, -2.559e-9
0.219, -2.577e-9
0.220, -2.598e-9
0.221, -2.615e-9
0.222, -2.635e-9
0.223, -2.653e-9
0.224, -2.669e-9
0.225, -2.689e-9
0.226, -2.704e-9
0.227, -2.722e-9
0.228, -2.741e-9
0.229, -2.757e-9
0.230, -2.775e-9
0.231, -2.790e-9
0.232, -2.806e-9
0.233, -2.822e-9
0.234, -2.838e-9
0.235, -2.852e-9
0.236, -2.864e-9
0.237, -2.877e-9
0.238, -2.891e-9
0.239, -2.902e-9
0.240, -2.917e-9
0.241, -2.933e-9
0.242, -2.947e-9
0.243, -2.957e-9
0.244, -2.968e-9
0.245, -2.981e-9
0.246, -2.993e-9
0.247, -3.006e-9
0.248, -3.018e-9
0.249, -3.026e-9
0.250, -3.037e-9
0.251, -3.045e-9
0.252, -3.057e-9
0.253, -3.066e-9
0.254, -3.075e-9
0.255, -3.086e-9
0.256, -3.095e-9
0.257, -3.106e-9
0.258, -3.114e-9
0.259, -3.122e-9
0.260, -3.132e-9
0.261, -3.136e-9
0.262, -3.147e-9
0.263, -3.155e-9
0.264, -3.164e-9
0.265, -3.173e-9
0.266, -3.176e-9
0.267, -3.183e-9
0.268, -3.190e-9
0.269, -3.196e-9
0.270, -3.206e-9
0.271, -3.210e-9
0.272, -3.217e-9
0.273, -3.224e-9
0.274, -3.227e-9
0.275, -3.232e-9
0.276, -3.236e-9
0.277, -3.243e-9
0.278, -3.250e-9
0.279, -3.254e-9
0.280, -3.259e-9
0.281, -3.263e-9
0.282, -3.269e-9
0.283, -3.273e-9
0.284, -3.276e-9
0.285, -3.280e-9
0.286, -3.287e-9
0.287, -3.292e-9
0.288, -3.296e-9
0.289, -3.298e-9
0.290, -3.302e-9
0.291, -3.304e-9
0.292, -3.310e-9
0.293, -3.314e-9
0.294, -3.318e-9
0.295, -3.323e-9
0.296, -3.325e-9
0.297, -3.328e-9
0.298, -3.331e-9
0.299, -3.335e-9
0.300, -3.338e-9
0.301, -3.340e-9
0.302, -3.344e-9
0.303, -3.347e-9
0.304, -3.350e-9
0.305, -3.353e-9
0.306, -3.355e-9
0.307, -3.358e-9
0.308, -3.362e-9
0.309, -3.364e-9
0.310, -3.370e-9
0.311, -3.373e-9
0.312, -3.376e-9
0.313, -3.378e-9
0.314, -3.381e-9
0.315, -3.387e-9
0.316, -3.388e-9
0.317, -3.390e-9
0.318, -3.390e-9
0.319, -3.391e-9
0.320, -3.393e-9
0.321, -3.394e-9
0.322, -3.399e-9
0.323, -3.402e-9
0.324, -3.404e-9
0.325, -3.404e-9
0.326, -3.407e-9
0.327, -3.410e-9
0.328, -3.413e-9
0.329, -3.417e-9
0.330, -3.419e-9
0.331, -3.420e-9
0.332, -3.423e-9
0.333, -3.423e-9
0.334, -3.427e-9
0.335, -3.430e-9
0.336, -3.430e-9
0.337, -3.434e-9
0.338, -3.434e-9
0.339, -3.436e-9
0.340, -3.440e-9
0.341, -3.440e-9
0.342, -3.445e-9
0.343, -3.446e-9
0.344, -3.447e-9
0.345, -3.449e-9
0.346, -3.450e-9
0.347, -3.454e-9
0.348, -3.456e-9
0.349, -3.456e-9
0.350, -3.458e-9
0.351, -3.459e-9
0.352, -3.460e-9
0.353, -3.461e-9
0.354, -3.461e-9
0.355, -3.466e-9
0.356, -3.470e-9
0.357, -3.472e-9
0.358, -3.473e-9
0.359, -3.474e-9
0.360, -3.476e-9
0.361, -3.478e-9
0.362, -3.482e-9
0.363, -3.485e-9
0.364, -3.486e-9
0.365, -3.485e-9
0.366, -3.487e-9
0.367, -3.489e-9
0.368, -3.490e-9
0.369, -3.494e-9
0.370, -3.496e-9
0.371, -3.498e-9
0.372, -3.500e-9
0.373, -3.500e-9
0.374, -3.501e-9
0.375, -3.503e-9
0.376, -3.504e-9
0.377, -3.508e-9
0.378, -3.509e-9
0.379, -3.510e-9
0.380, -3.514e-9
0.381, -3.514e-9
0.382, -3.516e-9
0.383, -3.518e-9
0.384, -3.520e-9
0.385, -3.522e-9
0.386, -3.523e-9
0.387, -3.527e-9
0.388, -3.527e-9
0.389, -3.529e-9
0.390, -3.529e-9
0.391, -3.531e-9
0.392, -3.535e-9
0.393, -3.535e-9
0.394, -3.537e-9
0.395, -3.538e-9
0.396, -3.538e-9
0.397, -3.543e-9
0.398, -3.544e-9
0.399, -3.544e-9
0.400, -3.547e-9
0.401, -3.548e-9
0.402, -3.547e-9
0.403, -3.548e-9
0.404, -3.552e-9
0.405, -3.553e-9
0.406, -3.556e-9
0.407, -3.558e-9
0.408, -3.559e-9
0.409, -3.560e-9
0.410, -3.559e-9
0.411, -3.556e-9
0.412, -3.559e-9
0.413, -3.562e-9
0.414, -3.565e-9
0.415, -3.563e-9
0.416, -3.565e-9
0.417, -3.568e-9
0.418, -3.567e-9
0.419, -3.569e-9
0.420, -3.570e-9
0.421, -3.570e-9
0.422, -3.572e-9
0.423, -3.571e-9
0.424, -3.572e-9
0.425, -3.575e-9
0.426, -3.575e-9
0.427, -3.577e-9
0.428, -3.578e-9
0.429, -3.580e-9
0.430, -3.583e-9
0.431, -3.581e-9
0.432, -3.583e-9
0.433, -3.584e-9
0.434, -3.583e-9
0.435, -3.584e-9
0.436, -3.584e-9
0.437, -3.586e-9
0.438, -3.585e-9
0.439, -3.586e-9
0.440, -3.588e-9
0.441, -3.590e-9
0.442, -3.592e-9
0.443, -3.593e-9
0.444, -3.593e-9
0.445, -3.591e-9
0.446, -3.590e-9
0.447, -3.595e-9
0.448, -3.597e-9
0.449, -3.598e-9
0.450, -3.598e-9
0.451, -3.600e-9
0.452, -3.603e-9
0.453, -3.603e-9
0.454, -3.607e-9
0.455, -3.608e-9
0.456, -3.605e-9
0.457, -3.607e-9
0.458, -3.605e-9
0.459, -3.606e-9
0.460, -3.608e-9
0.461, -3.609e-9
0.462, -3.612e-9
0.463, -3.612e-9
0.464, -3.613e-9
0.465, -3.618e-9
0.466, -3.616e-9
0.467, -3.621e-9
0.468, -3.623e-9
0.469, -3.621e-9
0.470, -3.623e-9
0.471, -3.624e-9
0.472, -3.625e-9
0.473, -3.627e-9
0.474, -3.627e-9
0.475, -3.628e-9
0.476, -3.629e-9
0.477, -3.633e-9
0.478, -3.634e-9
0.479, -3.635e-9
0.480, -3.636e-9
0.481, -3.637e-9
0.482, -3.640e-9
0.483, -3.641e-9
0.484, -3.642e-9
0.485, -3.642e-9
0.486, -3.645e-9
0.487, -3.649e-9
0.488, -3.648e-9
0.489, -3.652e-9
0.490, -3.651e-9
0.491, -3.652e-9
0.492, -3.656e-9
0.493, -3.655e-9
0.494, -3.659e-9
0.495, -3.661e-9
0.496, -3.663e-9
0.497, -3.666e-9
0.498, -3.669e-9
0.499, -3.671e-9
0.500, -3.672e-9
0.501, -3.673e-9
0.502, -3.677e-9
0.503, -3.678e-9
0.504, -3.680e-9
0.505, -3.681e-9
0.506, -3.680e-9
0.507, -3.683e-9
0.508, -3.685e-9
0.509, -3.688e-9
0.510, -3.691e-9
0.511, -3.692e-9
0.512, -3.696e-9
0.513, -3.697e-9
0.514, -3.700e-9
0.515, -3.704e-9
0.516, -3.708e-9
0.517, -3.711e-9
0.518, -3.713e-9
0.519, -3.714e-9
0.520, -3.717e-9
0.521, -3.722e-9
0.522, -3.725e-9
0.523, -3.727e-9
0.524, -3.731e-9
0.525, -3.732e-9
0.526, -3.734e-9
0.527, -3.738e-9
0.528, -3.740e-9
0.529, -3.744e-9
0.530, -3.747e-9
0.531, -3.751e-9
0.532, -3.756e-9
0.533, -3.756e-9
0.534, -3.761e-9
0.535, -3.764e-9
0.536, -3.766e-9
0.537, -3.771e-9
0.538, -3.772e-9
0.539, -3.777e-9
0.540, -3.782e-9
0.541, -3.783e-9
0.542, -3.789e-9
0.543, -3.791e-9
0.544, -3.794e-9
0.545, -3.802e-9
0.546, -3.807e-9
0.547, -3.811e-9
0.548, -3.815e-9
0.549, -3.818e-9
0.550, -3.821e-9
0.551, -3.826e-9
0.552, -3.831e-9
0.553, -3.835e-9
0.554, -3.838e-9
0.555, -3.843e-9
0.556, -3.848e-9
0.557, -3.854e-9
0.558, -3.858e-9
0.559, -3.862e-9
0.560, -3.867e-9
0.561, -3.871e-9
0.562, -3.875e-9
0.563, -3.879e-9
0.564, -3.886e-9
0.565, -3.891e-9
0.566, -3.895e-9
0.567, -3.900e-9
0.568, -3.903e-9
0.569, -3.907e-9
0.570, -3.911e-9
0.571, -3.917e-9
0.572, -3.925e-9
0.573, -3.928e-9
0.574, -3.935e-9
0.575, -3.942e-9
0.576, -3.946e-9
0.577, -3.952e-9
0.578, -3.958e-9
0.579, -3.962e-9
0.580, -3.969e-9
0.581, -3.972e-9
0.582, -3.979e-9
0.583, -3.984e-9
0.584, -3.988e-9
0.585, -3.996e-9
0.586, -4.002e-9
0.587, -4.009e-9
0.588, -4.013e-9
0.589, -4.020e-9
0.590, -4.026e-9
0.591, -4.031e-9
0.592, -4.038e-9
0.593, -4.043e-9
0.594, -4.051e-9
0.595, -4.058e-9
0.596, -4.063e-9
0.597, -4.070e-9
0.598, -4.075e-9
0.599, -4.081e-9
0.600, -4.087e-9
0.601, -4.091e-9
0.602, -4.099e-9
0.603, -4.104e-9
0.604, -4.110e-9
0.605, -4.117e-9
0.606, -4.124e-9
0.607, -4.132e-9
0.608, -4.139e-9
0.609, -4.145e-9
0.610, -4.152e-9
0.611, -4.158e-9
0.612, -4.165e-9
0.613, -4.172e-9
0.614, -4.181e-9
0.615, -4.190e-9
0.616, -4.197e-9
0.617, -4.204e-9
0.618, -4.207e-9
0.619, -4.216e-9
0.620, -4.223e-9
0.621, -4.230e-9
0.622, -4.239e-9
0.623, -4.248e-9
0.624, -4.255e-9
0.625, -4.264e-9
0.626, -4.271e-9
0.627, -4.281e-9
0.628, -4.290e-9
0.629, -4.298e-9
0.630, -4.306e-9
0.631, -4.314e-9
0.632, -4.322e-9
0.633, -4.330e-9
0.634, -4.339e-9
0.635, -4.346e-9
0.636, -4.356e-9
0.637, -4.364e-9
0.638, -4.372e-9
0.639, -4.381e-9
0.640, -4.389e-9
0.641, -4.399e-9
0.642, -4.409e-9
0.643, -4.415e-9
0.644, -4.426e-9
0.645, -4.433e-9
0.646, -4.443e-9
0.647, -4.455e-9
0.648, -4.462e-9
0.649, -4.473e-9
0.650, -4.480e-9
0.651, -4.489e-9
0.652, -4.499e-9
0.653, -4.505e-9
0.654, -4.516e-9
0.655, -4.526e-9
0.656, -4.533e-9
0.657, -4.544e-9
0.658, -4.552e-9
0.659, -4.562e-9
0.660, -4.573e-9
0.661, -4.580e-9
0.662, -4.591e-9
0.663, -4.600e-9
0.664, -4.610e-9
0.665, -4.620e-9
0.666, -4.629e-9
0.667, -4.639e-9
0.668, -4.648e-9
0.669, -4.658e-9
0.670, -4.669e-9
0.671, -4.679e-9
0.672, -4.687e-9
0.673, -4.696e-9
0.674, -4.706e-9
0.675, -4.716e-9
0.676, -4.725e-9
0.677, -4.735e-9
0.678, -4.744e-9
0.679, -4.756e-9
0.680, -4.765e-9
0.681, -4.777e-9
0.682, -4.788e-9
0.683, -4.796e-9
0.684, -4.807e-9
0.685, -4.818e-9
0.686, -4.829e-9
0.687, -4.839e-9
0.688, -4.849e-9
0.689, -4.861e-9
0.690, -4.871e-9
0.691, -4.881e-9
0.692, -4.893e-9
0.693, -4.904e-9
0.694, -4.916e-9
0.695, -4.929e-9
0.696, -4.940e-9
0.697, -4.952e-9
0.698, -4.962e-9
0.699, -4.974e-9
0.700, -4.985e-9
0.701, -4.997e-9
0.702, -5.009e-9
0.703, -5.021e-9
0.704, -5.032e-9
0.705, -5.043e-9
0.706, -5.055e-9
0.707, -5.068e-9
0.708, -5.079e-9
0.709, -5.092e-9
0.710, -5.106e-9
0.711, -5.117e-9
0.712, -5.129e-9
0.713, -5.141e-9
0.714, -5.154e-9
0.715, -5.166e-9
0.716, -5.178e-9
0.717, -5.193e-9
0.718, -5.203e-9
0.719, -5.218e-9
0.720, -5.229e-9
0.721, -5.242e-9
0.722, -5.254e-9
0.723, -5.267e-9
0.724, -5.282e-9
0.725, -5.294e-9
0.726, -5.308e-9
0.727, -5.323e-9
0.728, -5.333e-9
0.729, -5.348e-9
0.730, -5.361e-9
0.731, -5.374e-9
0.732, -5.388e-9
0.733, -5.400e-9
0.734, -5.414e-9
0.735, -5.428e-9
0.736, -5.441e-9
0.737, -5.457e-9
0.738, -5.470e-9
0.739, -5.484e-9
0.740, -5.499e-9
0.741, -5.513e-9
0.742, -5.526e-9
0.743, -5.539e-9
0.744, -5.555e-9
0.745, -5.568e-9
0.746, -5.584e-9
0.747, -5.597e-9
0.748, -5.612e-9
0.749, -5.628e-9
0.750, -5.642e-9
0.751, -5.656e-9
0.752, -5.670e-9
0.753, -5.684e-9
0.754, -5.700e-9
0.755, -5.715e-9
0.756, -5.729e-9
0.757, -5.744e-9
0.758, -5.759e-9
0.759, -5.776e-9
0.760, -5.791e-9
0.761, -5.808e-9
0.762, -5.823e-9
0.763, -5.836e-9
0.764, -5.854e-9
0.765, -5.868e-9
0.766, -5.885e-9
0.767, -5.901e-9
0.768, -5.916e-9
0.769, -5.932e-9
0.770, -5.948e-9
0.771, -5.966e-9
0.772, -5.982e-9
0.773, -5.996e-9
0.774, -6.015e-9
0.775, -6.031e-9
0.776, -6.046e-9
0.777, -6.062e-9
0.778, -6.077e-9
0.779, -6.095e-9
0.780, -6.112e-9
0.781, -6.128e-9
0.782, -6.145e-9
0.783, -6.163e-9
0.784, -6.180e-9
0.785, -6.197e-9
0.786, -6.212e-9
0.787, -6.230e-9
0.788, -6.245e-9
0.789, -6.261e-9
0.790, -6.279e-9
0.791, -6.296e-9
0.792, -6.314e-9
0.793, -6.332e-9
0.794, -6.349e-9
0.795, -6.367e-9
0.796, -6.384e-9
0.797, -6.402e-9
0.798, -6.420e-9
0.799, -6.437e-9
0.800, -6.373e-9
0.799, -6.137e-9
0.798, -5.969e-9
0.797, -5.833e-9
0.796, -5.713e-9
0.795, -5.606e-9
0.794, -5.505e-9
0.793, -5.408e-9
0.792, -5.318e-9
0.791, -5.233e-9
0.790, -5.150e-9
0.789, -5.071e-9
0.788, -4.992e-9
0.787, -4.919e-9
0.786, -4.847e-9
0.785, -4.776e-9
0.784, -4.710e-9
0.783, -4.644e-9
0.782, -4.579e-9
0.781, -4.517e-9
0.780, -4.456e-9
0.779, -4.398e-9
0.778, -4.339e-9
0.777, -4.282e-9
0.776, -4.229e-9
0.775, -4.175e-9
0.774, -4.121e-9
0.773, -4.070e-9
0.772, -4.019e-9
0.771, -3.971e-9
0.770, -3.921e-9
0.769, -3.873e-9
0.768, -3.825e-9
0.767, -3.775e-9
0.766, -3.730e-9
0.765, -3.687e-9
0.764, -3.644e-9
0.763, -3.601e-9
0.762, -3.556e-9
0.761, -3.514e-9
0.760, -3.471e-9
0.759, -3.430e-9
0.758, -3.389e-9
0.757, -3.346e-9
0.756, -3.307e-9
0.755, -3.268e-9
0.754, -3.231e-9
0.753, -3.194e-9
0.752, -3.155e-9
0.751, -3.118e-9
0.750, -3.082e-9
0.749, -3.047e-9
0.748, -3.012e-9
0.747, -2.976e-9
0.746, -2.942e-9
0.745, -2.908e-9
0.744, -2.872e-9
0.743, -2.840e-9
0.742, -2.808e-9
0.741, -2.775e-9
0.740, -2.743e-9
0.739, -2.711e-9
0.738, -2.679e-9
0.737, -2.648e-9
0.736, -2.617e-9
0.735, -2.587e-9
0.734, -2.555e-9
0.733, -2.526e-9
0.732, -2.498e-9
0.731, -2.468e-9
0.730, -2.437e-9
0.729, -2.409e-9
0.728, -2.382e-9
0.727, -2.354e-9
0.726, -2.328e-9
0.725, -2.299e-9
0.724, -2.271e-9
0.723, -2.243e-9
0.722, -2.216e-9
0.721, -2.193e-9
0.720, -2.164e-9
0.719, -2.138e-9
0.718, -2.113e-9
0.717, -2.087e-9
0.716, -2.065e-9
0.715, -2.040e-9
0.714, -2.015e-9
0.713, -1.991e-9
0.712, -1.966e-9
0.711, -1.943e-9
0.710, -1.920e-9
0.709, -1.897e-9
0.708, -1.874e-9
0.707, -1.850e-9
0.706, -1.827e-9
0.705, -1.804e-9
0.704, -1.782e-9
0.703, -1.757e-9
0.702, -1.737e-9
0.701, -1.717e-9
0.700, -1.693e-9
0.699, -1.673e-9
0.698, -1.650e-9
0.697, -1.628e-9
0.696, -1.609e-9
0.695, -1.588e-9
0.694, -1.569e-9
0.693, -1.548e-9
0.692, -1.526e-9
0.691, -1.509e-9
0.690, -1.487e-9
0.689, -1.468e-9
0.688, -1.449e-9
0.687, -1.427e-9
0.686, -1.409e-9
0.685, -1.390e-9
0.684, -1.369e-9
0.683, -1.352e-9
0.682, -1.334e-9
0.681, -1.315e-9
0.680, -1.298e-9
0.679, -1.278e-9
0.678, -1.260e-9
0.677, -1.240e-9
0.676, -1.222e-9
0.675, -1.207e-9
0.674, -1.189e-9
0.673, -1.170e-9
0.672, -1.151e-9
0.671, -1.135e-9
0.670, -1.118e-9
0.669, -1.102e-9
0.668, -1.084e-9
0.667, -1.068e-9
0.666, -1.051e-9
0.665, -1.035e-9
0.664, -1.019e-9
0.663, -1.002e-9
0.662, -9.875e-10
0.661, -9.725e-10
0.660, -9.560e-10
0.659, -9.407e-10
0.658, -9.237e-10
0.657, -9.088e-10
0.656, -8.930e-10
0.655, -8.771e-10
0.654, -8.638e-10
0.653, -8.475e-10
0.652, -8.313e-10
0.651, -8.174e-10
0.650, -8.017e-10
0.649, -7.871e-10
0.648, -7.723e-10
0.647, -7.569e-10
0.646, -7.439e-10
0.645, -7.292e-10
0.644, -7.166e-10
0.643, -7.035e-10
0.642, -6.888e-10
0.641, -6.768e-10
0.640, -6.626e-10
0.639, -6.493e-10
0.638, -6.366e-10
0.637, -6.226e-10
0.636, -6.107e-10
0.635, -5.961e-10
0.634, -5.833e-10
0.633, -5.708e-10
0.632, -5.549e-10
0.631, -5.424e-10
0.630, -5.310e-10
0.629, -5.179e-10
0.628, -5.028e-10
0.627, -4.918e-10
0.626, -4.817e-10
0.625, -4.707e-10
0.624, -4.594e-10
0.623, -4.468e-10
0.622, -4.344e-10
0.621, -4.222e-10
0.620, -4.090e-10
0.619, -3.990e-10
0.618, -3.868e-10
0.617, -3.752e-10
0.616, -3.640e-10
0.615, -3.498e-10
0.614, -3.400e-10
0.613, -3.278e-10
0.612, -3.159e-10
0.611, -3.074e-10
0.610, -2.953e-10
0.609, -2.853e-10
0.608, -2.743e-10
0.607, -2.626e-10
0.606, -2.546e-10
0.605, -2.422e-10
0.604, -2.325e-10
0.603, -2.228e-10
0.602, -2.120e-10
0.601, -2.031e-10
0.600, -1.913e-10
0.599, -1.809e-10
0.598, -1.729e-10
0.597, -1.615e-10
0.596, -1.521e-10
0.595, -1.421e-10
0.594, -1.323e-10
0.593, -1.236e-10
0.592, -1.124e-10
0.591, -1.020e-10
0.590, -9.240e-11
0.589, -8.374e-11
0.588, -7.464e-11
0.587, -6.704e-11
0.586, -5.763e-11
0.585, -4.789e-11
0.584, -3.942e-11
0.583, -3.156e-11
0.582, -2.301e-11
0.581, -1.533e-11
0.580, -3.972e-12
0.579, 4.332e-12
0.578, 1.265e-11
0.577, 2.013e-11
0.576, 2.766e-11
0.575, 3.911e-11
0.574, 4.628e-11
0.573, 5.488e-11
0.572, 6.422e-11
0.571, 7.063e-11
0.570, 8.014e-11
0.569, 8.771e-11
0.568, 9.592e-11
0.567, 1.048e-10
0.566, 1.119e-10
0.565, 1.209e-10
0.564, 1.279e-10
0.563, 1.350e-10
0.562, 1.437e-10
0.561, 1.496e-10
0.560, 1.582e-10
0.559, 1.663e-10
0.558, 1.745e-10
0.557, 1.844e-10
0.556, 1.910e-10
0.555, 1.984e-10
0.554, 2.048e-10
0.553, 2.116e-10
0.552, 2.192e-10
0.551, 2.257e-10
0.550, 2.334e-10
0.549, 2.390e-10
0.548, 2.468e-10
0.547, 2.538e-10
0.546, 2.607e-10
0.545, 2.700e-10
0.544, 2.744e-10
0.543, 2.817e-10
0.542, 2.885e-10
0.541, 2.953e-10
0.540, 3.040e-10
0.539, 3.088e-10
0.538, 3.167e-10
0.537, 3.221e-10
0.536, 3.274e-10
0.535, 3.365e-10
0.534, 3.420e-10
0.533, 3.477e-10
0.532, 3.543e-10
0.531, 3.591e-10
0.530, 3.665e-10
0.529, 3.726e-10
0.528, 3.794e-10
0.527, 3.846e-10
0.526, 3.894e-10
0.525, 3.971e-10
0.524, 4.029e-10
0.523, 4.086e-10
0.522, 4.148e-10
0.521, 4.189e-10
0.520, 4.255e-10
0.519, 4.303e-10
0.518, 4.355e-10
0.517, 4.421e-10
0.516, 4.477e-10
0.515, 4.531e-10
0.514, 4.585e-10
0.513, 4.637e-10
0.512, 4.688e-10
0.511, 4.753e-10
0.510, 4.808e-10
0.509, 4.854e-10
0.508, 4.912e-10
0.507, 4.955e-10
0.506, 5.001e-10
0.505, 5.058e-10
0.504, 5.103e-10
0.503, 5.162e-10
0.502, 5.212e-10
0.501, 5.251e-10
0.500, 5.303e-10
0.499, 5.336e-10
0.498, 5.401e-10
0.497, 5.458e-10
0.496, 5.495e-10
0.495, 5.552e-10
0.494, 5.579e-10
0.493, 5.636e-10
0.492, 5.705e-10
0.491, 5.738e-10
0.490, 5.804e-10
0.489, 5.825e-10
0.488, 5.871e-10
0.487, 5.920e-10
0.486, 5.950e-10
0.485, 6.002e-10
0.484, 6.037e-10
0.483, 6.089e-10
0.482, 6.140e-10
0.481, 6.172e-10
0.480, 6.222e-10
0.479, 6.250e-10
0.478, 6.283e-10
0.477, 6.339e-10
0.476, 6.371e-10
0.475, 6.418e-10
0.474, 6.447e-10
0.473, 6.490e-10
0.472, 6.535e-10
0.471, 6.570e-10
0.470, 6.615e-10
0.469, 6.650e-10
0.468, 6.696e-10
0.467, 6.728e-10
0.466, 6.767e-10
0.465, 6.811e-10
0.464, 6.844e-10
0.463, 6.878e-10
0.462, 6.917e-10
0.461, 6.954e-10
0.460, 7.004e-10
0.459, 7.024e-10
0.458, 7.052e-10
0.457, 7.083e-10
0.456, 7.126e-10
0.455, 7.182e-10
0.454, 7.198e-10
0.453, 7.234e-10
0.452, 7.278e-10
0.451, 7.310e-10
0.450, 7.350e-10
0.449, 7.382e-10
0.448, 7.427e-10
0.447, 7.465e-10
0.446, 7.479e-10
0.445, 7.523e-10
0.444, 7.555e-10
0.443, 7.578e-10
0.442, 7.618e-10
0.441, 7.641e-10
0.440, 7.678e-10
0.439, 7.704e-10
0.438, 7.735e-10
0.437, 7.775e-10
0.436, 7.797e-10
0.435, 7.825e-10
0.434, 7.855e-10
0.433, 7.879e-10
0.432, 7.912e-10
0.431, 7.947e-10
0.430, 7.977e-10
0.429, 8.008e-10
0.428, 8.042e-10
0.427, 8.059e-10
0.426, 8.082e-10
0.425, 8.127e-10
0.424, 8.140e-10
0.423, 8.184e-10
0.422, 8.204e-10
0.421, 8.235e-10
0.420, 8.265e-10
0.419, 8.276e-10
0.418, 8.311e-10
0.417, 8.335e-10
0.416, 8.361e-10
0.415, 8.407e-10
0.414, 8.408e-10
0.413, 8.433e-10
0.412, 8.471e-10
0.411, 8.481e-10
0.410, 8.525e-10
0.409, 8.553e-10
0.408, 8.582e-10
0.407, 8.613e-10
0.406, 8.619e-10
0.405, 8.649e-10
0.404, 8.662e-10
0.403, 8.683e-10
0.402, 8.720e-10
0.401, 8.734e-10
0.400, 8.762e-10
0.399, 8.779e-10
0.398, 8.807e-10
0.397, 8.829e-10
0.396, 8.859e-10
0.395, 8.887e-10
0.394, 8.909e-10
0.393, 8.932e-10
0.392, 8.948e-10
0.391, 8.971e-10
0.390, 8.991e-10
0.389, 9.012e-10
0.388, 9.054e-10
0.387, 9.067e-10
0.386, 9.095e-10
0.385, 9.121e-10
0.384, 9.130e-10
0.383, 9.162e-10
0.382, 9.180e-10
0.381, 9.190e-10
0.380, 9.217e-10
0.379, 9.224e-10
0.378, 9.260e-10
0.377, 9.281e-10
0.376, 9.299e-10
0.375, 9.336e-10
0.374, 9.335e-10
0.373, 9.368e-10
0.372, 9.391e-10
0.371, 9.402e-10
0.370, 9.447e-10
0.369, 9.455e-10
0.368, 9.473e-10
0.367, 9.494e-10
0.366, 9.517e-10
0.365, 9.541e-10
0.364, 9.551e-10
0.363, 9.591e-10
0.362, 9.605e-10
0.361, 9.605e-10
0.360, 9.643e-10
0.359, 9.664e-10
0.358, 9.699e-10
0.357, 9.716e-10
0.356, 9.737e-10
0.355, 9.754e-10
0.354, 9.761e-10
0.353, 9.796e-10
0.352, 9.812e-10
0.351, 9.839e-10
0.350, 9.870e-10
0.349, 9.876e-10
0.348, 9.911e-10
0.347, 9.930e-10
0.346, 9.952e-10
0.345, 9.980e-10
0.344, 9.988e-10
0.343, 1.002e-9
0.342, 1.003e-9
0.341, 1.006e-9
0.340, 1.010e-9
0.339, 1.011e-9
0.338, 1.015e-9
0.337, 1.016e-9
0.336, 1.019e-9
0.335, 1.022e-9
0.334, 1.023e-9
0.333, 1.027e-9
0.332, 1.028e-9
0.331, 1.030e-9
0.330, 1.034e-9
0.329, 1.036e-9
0.328, 1.040e-9
0.327, 1.043e-9
0.326, 1.045e-9
0.325, 1.049e-9
0.324, 1.051e-9
0.323, 1.054e-9
0.322, 1.057e-9
0.321, 1.060e-9
0.320, 1.064e-9
0.319, 1.067e-9
0.318, 1.069e-9
0.317, 1.073e-9
0.316, 1.077e-9
0.315, 1.080e-9
0.314, 1.081e-9
0.313, 1.084e-9
0.312, 1.086e-9
0.311, 1.089e-9
0.310, 1.092e-9
0.309, 1.096e-9
0.308, 1.101e-9
0.307, 1.104e-9
0.306, 1.107e-9
0.305, 1.112e-9
0.304, 1.115e-9
0.303, 1.121e-9
0.302, 1.123e-9
0.301, 1.127e-9
0.300, 1.132e-9
0.299, 1.134e-9
0.298, 1.141e-9
0.297, 1.145e-9
0.296, 1.149e-9
0.295, 1.155e-9
0.294, 1.159e-9
0.293, 1.165e-9
0.292, 1.169e-9
0.291, 1.173e-9
0.290, 1.180e-9
0.289, 1.183e-9
0.288, 1.190e-9
0.287, 1.197e-9
0.286, 1.201e-9
0.285, 1.208e-9
0.284, 1.214e-9
0.283, 1.219e-9
0.282, 1.226e-9
0.281, 1.232e-9
0.280, 1.239e-9
0.279, 1.245e-9
0.278, 1.253e-9
0.277, 1.260e-9
0.276, 1.267e-9
0.275, 1.275e-9
0.274, 1.283e-9
0.273, 1.292e-9
0.272, 1.299e-9
0.271, 1.308e-9
0.270, 1.315e-9
0.269, 1.324e-9
0.268, 1.332e-9
0.267, 1.339e-9
0.266, 1.349e-9
0.265, 1.359e-9
0.264, 1.369e-9
0.263, 1.382e-9
0.262, 1.389e-9
0.261, 1.398e-9
0.260, 1.409e-9
0.259, 1.418e-9
0.258, 1.431e-9
0.257, 1.441e-9
0.256, 1.453e-9
0.255, 1.466e-9
0.254, 1.476e-9
0.253, 1.489e-9
0.252, 1.503e-9
0.251, 1.515e-9
0.250, 1.529e-9
0.249, 1.540e-9
0.248, 1.555e-9
0.247, 1.569e-9
0.246, 1.580e-9
0.245, 1.595e-9
0.244, 1.609e-9
0.243, 1.625e-9
0.242, 1.639e-9
0.241, 1.653e-9
0.240, 1.669e-9
0.239, 1.684e-9
0.238, 1.699e-9
0.237, 1.715e-9
0.236, 1.730e-9
0.235, 1.746e-9
0.234, 1.763e-9
0.233, 1.780e-9
0.232, 1.796e-9
0.231, 1.813e-9
0.230, 1.830e-9
0.229, 1.846e-9
0.228, 1.865e-9
0.227, 1.880e-9
0.226, 1.898e-9
0.225, 1.915e-9
0.224, 1.932e-9
0.223, 1.952e-9
0.222, 1.967e-9
0.221, 1.985e-9
0.220, 2.004e-9
0.219, 2.019e-9
0.218, 2.038e-9
0.217, 2.055e-9
0.216, 2.073e-9
0.215, 2.091e-9
0.214, 2.106e-9
0.213, 2.126e-9
0.212, 2.142e-9
0.211, 2.159e-9
0.210, 2.177e-9
0.209, 2.192e-9
0.208, 2.211e-9
0.207, 2.228e-9
0.206, 2.244e-9
0.205, 2.263e-9
0.204, 2.278e-9
0.203, 2.294e-9
0.202, 2.310e-9
0.201, 2.325e-9
0.200, 2.342e-9
0.199, 2.357e-9
0.198, 2.373e-9
0.197, 2.388e-9
0.196, 2.402e-9
0.195, 2.417e-9
0.194, 2.432e-9
0.193, 2.446e-9
0.192, 2.460e-9
0.191, 2.476e-9
0.190, 2.488e-9
0.189, 2.501e-9
0.188, 2.516e-9
0.187, 2.528e-9
0.186, 2.542e-9
0.185, 2.554e-9
0.184, 2.566e-9
0.183, 2.580e-9
0.182, 2.591e-9
0.181, 2.605e-9
0.180, 2.617e-9
0.179, 2.627e-9
0.178, 2.640e-9
0.177, 2.650e-9
0.176, 2.661e-9
0.175, 2.673e-9
0.174, 2.682e-9
0.173, 2.695e-9
0.172, 2.704e-9
0.171, 2.714e-9
0.170, 2.725e-9
0.169, 2.733e-9
0.168, 2.744e-9
0.167, 2.754e-9
0.166, 2.762e-9
0.165, 2.772e-9
0.164, 2.781e-9
0.163, 2.790e-9
0.162, 2.799e-9
0.161, 2.807e-9
0.160, 2.816e-9
0.159, 2.824e-9
0.158, 2.833e-9
0.157, 2.842e-9
0.156, 2.850e-9
0.155, 2.858e-9
0.154, 2.866e-9
0.153, 2.874e-9
0.152, 2.881e-9
0.151, 2.890e-9
0.150, 2.897e-9
0.149, 2.904e-9
0.148, 2.912e-9
0.147, 2.919e-9
0.146, 2.927e-9
0.145, 2.935e-9
0.144, 2.941e-9
0.143, 2.949e-9
0.142, 2.954e-9
0.141, 2.962e-9
0.140, 2.968e-9
0.139, 2.975e-9
0.138, 2.983e-9
0.137, 2.989e-9
0.136, 2.996e-9
0.135, 3.003e-9
0.134, 3.008e-9
0.133, 3.017e-9
0.132, 3.022e-9
0.131, 3.029e-9
0.130, 3.036e-9
0.129, 3.042e-9
0.128, 3.050e-9
0.127, 3.056e-9
0.126, 3.062e-9
0.125, 3.068e-9
0.124, 3.074e-9
0.123, 3.081e-9
0.122, 3.087e-9
0.121, 3.094e-9
0.120, 3.100e-9
0.119, 3.106e-9
0.118, 3.112e-9
0.117, 3.118e-9
0.116, 3.125e-9
0.115, 3.131e-9
0.114, 3.136e-9
0.113, 3.143e-9
0.112, 3.148e-9
0.111, 3.155e-9
0.110, 3.162e-9
0.109, 3.168e-9
0.108, 3.175e-9
0.107, 3.179e-9
0.106, 3.186e-9
0.105, 3.192e-9
0.104, 3.198e-9
0.103, 3.206e-9
0.102, 3.211e-9
0.101, 3.217e-9
0.100, 3.224e-9
0.099, 3.228e-9
0.098, 3.237e-9
0.097, 3.242e-9
0.096, 3.248e-9
0.095, 3.254e-9
0.094, 3.259e-9
0.093, 3.266e-9
0.092, 3.273e-9
0.091, 3.278e-9
0.090, 3.285e-9
0.089, 3.291e-9
0.088, 3.297e-9
0.087, 3.303e-9
0.086, 3.309e-9
0.085, 3.316e-9
0.084, 3.322e-9
0.083, 3.329e-9
0.082, 3.335e-9
0.081, 3.342e-9
0.080, 3.347e-9
0.079, 3.354e-9
0.078, 3.361e-9
0.077, 3.367e-9
0.076, 3.374e-9
0.075, 3.380e-9
0.074, 3.387e-9
0.073, 3.394e-9
0.072, 3.399e-9
0.071, 3.406e-9
0.070, 3.412e-9
0.069, 3.419e-9
0.068, 3.427e-9
0.067, 3.431e-9
0.066, 3.439e-9
0.065, 3.446e-9
0.064, 3.450e-9
0.063, 3.459e-9
0.062, 3.464e-9
0.061, 3.472e-9
0.060, 3.479e-9
0.059, 3.485e-9
0.058, 3.492e-9
0.057, 3.498e-9
0.056, 3.505e-9
0.055, 3.512e-9
0.054, 3.519e-9
0.053, 3.527e-9
0.052, 3.532e-9
0.051, 3.539e-9
0.050, 3.547e-9
0.049, 3.552e-9
0.048, 3.561e-9
0.047, 3.567e-9
0.046, 3.574e-9
0.045, 3.581e-9
0.044, 3.588e-9
0.043, 3.595e-9
0.042, 3.600e-9
0.041, 3.608e-9
0.040, 3.616e-9
0.039, 3.623e-9
0.038, 3.630e-9
0.037, 3.636e-9
0.036, 3.644e-9
0.035, 3.651e-9
0.034, 3.658e-9
0.033, 3.667e-9
0.032, 3.673e-9
0.031, 3.679e-9
0.030, 3.686e-9
0.029, 3.693e-9
0.028, 3.701e-9
0.027, 3.708e-9
0.026, 3.717e-9
0.025, 3.723e-9
0.024, 3.730e-9
0.023, 3.738e-9
0.022, 3.744e-9
0.021, 3.753e-9
0.020, 3.760e-9
0.019, 3.767e-9
0.018, 3.776e-9
0.017, 3.780e-9
0.016, 3.788e-9
0.015, 3.796e-9
0.014, 3.802e-9
0.013, 3.811e-9
0.012, 3.819e-9
0.011, 3.825e-9
0.010, 3.833e-9
0.009, 3.840e-9
0.008, 3.848e-9
0.007, 3.855e-9
0.006, 3.862e-9
0.005, 3.870e-9
0.004, 3.877e-9
0.003, 3.884e-9
0.002, 3.891e-9
0.001, 3.899e-9
