Results:

Channel 1:
Segment 1:

Segment 2:

Potential/V, Current/A

0.000, 1.343e-9
0.001, 1.241e-9
0.002, 1.170e-9
0.003, 1.115e-9
0.004, 1.064e-9
0.005, 1.020e-9
0.006, 9.790e-10
0.007, 9.375e-10
0.008, 9.002e-10
0.009, 8.621e-10
0.010, 8.290e-10
0.011, 7.958e-10
0.012, 7.610e-10
0.013, 7.311e-10
0.014, 6.993e-10
0.015, 6.684e-10
0.016, 6.399e-10
0.017, 6.103e-10
0.018, 5.832e-10
0.019, 5.546e-10
0.020, 5.276e-10
0.021, 5.017e-10
0.022, 4.743e-10
0.023, 4.504e-10
0.024, 4.249e-10
0.025, 3.989e-10
0.026, 3.758e-10
0.027, 3.512e-10
0.028, 3.293e-10
0.029, 3.059e-10
0.030, 2.813e-10
0.031, 2.590e-10
0.032, 2.375e-10
0.033, 2.158e-10
0.034, 1.926e-10
0.035, 1.719e-10
0.036, 1.520e-10
0.037, 1.310e-10
0.038, 1.113e-10
0.039, 9.065e-11
0.040, 7.146e-11
0.041, 5.184e-11
0.042, 3.261e-11
0.043, 1.469e-11
0.044, -6.159e-12
0.045, -2.399e-11
0.046, -4.067e-11
0.047, -6.040e-11
0.048, -7.762e-11
0.049, -9.668e-11
0.050, -1.131e-10
0.051, -1.301e-10
0.052, -1.484e-10
0.053, -1.625e-10
0.054, -1.802e-10
0.055, -1.977e-10
0.056, -2.131e-10
0.057, -2.300e-10
0.058, -2.451e-10
0.059, -2.618e-10
0.060, -2.778e-10
0.061, -2.920e-10
0.062, -3.083e-10
0.063, -3.224e-10
0.064, -3.374e-10
0.065, -3.539e-10
0.066, -3.686e-10
0.067, -3.829e-10
0.068, -3.959e-10
0.069, -4.113e-10
0.070, -4.264e-10
0.071, -4.391e-10
0.072, -4.534e-10
0.073, -4.674e-10
0.074, -4.817e-10
0.075, -4.938e-10
0.076, -5.078e-10
0.077, -5.231e-10
0.078, -5.357e-10
0.079, -5.490e-10
0.080, -5.614e-10
0.081, -5.741e-10
0.082, -5.870e-10
0.083, -5.996e-10
0.084, -6.141e-10
0.085, -6.258e-10
0.086, -6.379e-10
0.087, -6.518e-10
0.088, -6.620e-10
0.089, -6.756e-10
0.090, -6.871e-10
0.091, -7.000e-10
0.092, -7.129e-10
0.093, -7.221e-10
0.094, -7.356e-10
0.095, -7.485e-10
0.096, -7.593e-10
0.097, -7.719e-10
0.098, -7.821e-10
0.099, -7.951e-10
0.100, -8.071e-10
0.101, -8.175e-10
0.102, -8.315e-10
0.103, -8.412e-10
0.104, -8.534e-10
0.105, -8.654e-10
0.106, -8.759e-10
0.107, -8.883e-10
0.108, -8.998e-10
0.109, -9.123e-10
0.110, -9.227e-10
0.111, -9.337e-10
0.112, -9.460e-10
0.113, -9.583e-10
0.114, -9.700e-10
0.115, -9.807e-10
0.116, -9.924e-10
0.117, -1.004e-9
0.118, -1.016e-9
0.119, -1.029e-9
0.120, -1.040e-9
0.121, -1.052e-9
0.122, -1.064e-9
0.123, -1.074e-9
0.124, -1.087e-9
0.125, -1.098e-9
0.126, -1.111e-9
0.127, -1.124e-9
0.128, -1.135e-9
0.129, -1.149e-9
0.130, -1.160e-9
0.131, -1.172e-9
0.132, -1.187e-9
0.133, -1.198e-9
0.134, -1.212e-9
0.135, -1.225e-9
0.136, -1.238e-9
0.137, -1.252e-9
0.138, -1.265e-9
0.139, -1.279e-9
0.140, -1.293e-9
0.141, -1.306e-9
0.142, -1.320e-9
0.143, -1.334e-9
0.144, -1.349e-9
0.145, -1.365e-9
0.146, -1.379e-9
0.147, -1.395e-9
0.148, -1.409e-9
0.149, -1.425e-9
0.150, -1.441e-9
0.151, -1.457e-9
0.152, -1.473e-9
0.153, -1.489e-9
0.154, -1.507e-9
0.155, -1.523e-9
0.156, -1.541e-9
0.157, -1.558e-9
0.158, -1.576e-9
0.159, -1.595e-9
0.160, -1.611e-9
0.161, -1.631e-9
0.162, -1.650e-9
0.163, -1.668e-9
0.164, -1.688e-9
0.165, -1.706e-9
0.166, -1.728e-9
0.167, -1.751e-9
0.168, -1.770e-9
0.169, -1.790e-9
0.170, -1.809e-9
0.171, -1.834e-9
0.172, -1.857e-9
0.173, -1.875e-9
0.174, -1.900e-9
0.175, -1.925e-9
0.176, -1.947e-9
0.177, -1.968e-9
0.178, -1.988e-9
0.179, -2.016e-9
0.180, -2.044e-9
0.181, -2.067e-9
0.182, -2.091e-9
0.183, -2.115e-9
0.184, -2.142e-9
0.185, -2.167e-9
0.186, -2.194e-9
0.187, -2.223e-9
0.188, -2.248e-9
0.189, -2.272e-9
0.190, -2.299e-9
0.191, -2.326e-9
0.192, -2.350e-9
0.193, -2.379e-9
0.194, -2.411e-9
0.195, -2.434e-9
0.196, -2.458e-9
0.197, -2.490e-9
0.198, -2.520e-9
0.199, -2.539e-9
0.200, -2.561e-9
0.201, -2.598e-9
0.202, -2.628e-9
0.203, -2.649e-9
0.204, -2.678e-9
0.205, -2.706e-9
0.206, -2.728e-9
0.207, -2.756e-9
0.208, -2.787e-9
0.209, -2.812e-9
0.210, -2.832e-9
0.211, -2.863e-9
0.212, -2.885e-9
0.213, -2.901e-9
0.214, -2.933e-9
0.215, -2.968e-9
0.216, -2.989e-9
0.217, -3.000e-9
0.218, -3.019e-9
0.219, -3.050e-9
0.220, -3.070e-9
0.221, -3.087e-9
0.222, -3.119e-9
0.223, -3.148e-9
0.224, -3.158e-9
0.225, -3.173e-9
0.226, -3.195e-9
0.227, -3.212e-9
0.228, -3.233e-9
0.229, -3.260e-9
0.230, -3.269e-9
0.231, -3.281e-9
0.232, -3.307e-9
0.233, -3.325e-9
0.234, -3.327e-9
0.235, -3.339e-9
0.236, -3.369e-9
0.237, -3.385e-9
0.238, -3.391e-9
0.239, -3.404e-9
0.240, -3.413e-9
0.241, -3.423e-9
0.242, -3.440e-9
0.243, -3.453e-9
0.244, -3.466e-9
0.245, -3.477e-9
0.246, -3.487e-9
0.247, -3.489e-9
0.248, -3.495e-9
0.249, -3.517e-9
0.250, -3.532e-9
0.251, -3.536e-9
0.252, -3.536e-9
0.253, -3.536e-9
0.254, -3.549e-9
0.255, -3.566e-9
0.256, -3.574e-9
0.257, -3.575e-9
0.258, -3.580e-9
0.259, -3.591e-9
0.260, -3.593e-9
0.261, -3.599e-9
0.262, -3.610e-9
0.263, -3.613e-9
0.264, -3.620e-9
0.265, -3.624e-9
0.266, -3.624e-9
0.267, -3.634e-9
0.268, -3.640e-9
0.269, -3.632e-9
0.270, -3.636e-9
0.271, -3.652e-9
0.272, -3.656e-9
0.273, -3.652e-9
0.274, -3.655e-9
0.275, -3.655e-9
0.276, -3.653e-9
0.277, -3.663e-9
0.278, -3.675e-9
0.279, -3.676e-9
0.280, -3.674e-9
0.281, -3.678e-9
0.282, -3.672e-9
0.283, -3.668e-9
0.284, -3.682e-9
0.285, -3.701e-9
0.286, -3.702e-9
0.287, -3.684e-9
0.288, -3.678e-9
0.289, -3.695e-9
0.290, -3.698e-9
0.291, -3.700e-9
0.292, -3.714e-9
0.293, -3.709e-9
0.294, -3.693e-9
0.295, -3.695e-9
0.296, -3.712e-9
0.297, -3.710e-9
0.298, -3.709e-9
0.299, -3.723e-9
0.300, -3.716e-9
0.301, -3.703e-9
0.302, -3.713e-9
0.303, -3.725e-9
0.304, -3.717e-9
0.305, -3.712e-9
0.306, -3.724e-9
0.307, -3.730e-9
0.308, -3.720e-9
0.309, -3.721e-9
0.310, -3.734e-9
0.311, -3.734e-9
0.312, -3.726e-9
0.313, -3.724e-9
0.314, -3.733e-9
0.315, -3.733e-9
0.316, -3.735e-9
0.317, -3.742e-9
0.318, -3.741e-9
0.319, -3.737e-9
0.320, -3.739e-9
0.321, -3.747e-9
0.322, -3.739e-9
0.323, -3.735e-9
0.324, -3.753e-9
0.325, -3.769e-9
0.326, -3.758e-9
0.327, -3.748e-9
0.328, -3.748e-9
0.329, -3.750e-9
0.330, -3.748e-9
0.331, -3.763e-9
0.332, -3.777e-9
0.333, -3.765e-9
0.334, -3.756e-9
0.335, -3.760e-9
0.336, -3.769e-9
0.337, -3.764e-9
0.338, -3.766e-9
0.339, -3.771e-9
0.340, -3.771e-9
0.341, -3.770e-9
0.342, -3.777e-9
0.343, -3.775e-9
0.344, -3.768e-9
0.345, -3.775e-9
0.346, -3.788e-9
0.347, -3.785e-9
0.348, -3.773e-9
0.349, -3.784e-9
0.350, -3.798e-9
0.351, -3.795e-9
0.352, -3.785e-9
0.353, -3.790e-9
0.354, -3.799e-9
0.355, -3.797e-9
0.356, -3.799e-9
0.357, -3.799e-9
0.358, -3.794e-9
0.359, -3.795e-9
0.360, -3.811e-9
0.361, -3.818e-9
0.362, -3.811e-9
0.363, -3.806e-9
0.364, -3.808e-9
0.365, -3.804e-9
0.366, -3.813e-9
0.367, -3.830e-9
0.368, -3.830e-9
0.369, -3.818e-9
0.370, -3.810e-9
0.371, -3.821e-9
0.372, -3.831e-9
0.373, -3.826e-9
0.374, -3.827e-9
0.375, -3.835e-9
0.376, -3.833e-9
0.377, -3.827e-9
0.378, -3.827e-9
0.379, -3.833e-9
0.380, -3.838e-9
0.381, -3.845e-9
0.382, -3.849e-9
0.383, -3.840e-9
0.384, -3.836e-9
0.385, -3.844e-9
0.386, -3.856e-9
0.387, -3.857e-9
0.388, -3.852e-9
0.389, -3.857e-9
0.390, -3.862e-9
0.391, -3.861e-9
0.392, -3.852e-9
0.393, -3.856e-9
0.394, -3.864e-9
0.395, -3.864e-9
0.396, -3.874e-9
0.397, -3.878e-9
0.398, -3.865e-9
0.399, -3.859e-9
0.400, -3.799e-9
0.399, -3.614e-9
0.398, -3.492e-9
0.397, -3.404e-9
0.396, -3.320e-9
0.395, -3.230e-9
0.394, -3.163e-9
0.393, -3.110e-9
0.392, -3.051e-9
0.391, -2.995e-9
0.390, -2.947e-9
0.389, -2.901e-9
0.388, -2.847e-9
0.387, -2.788e-9
0.386, -2.744e-9
0.385, -2.714e-9
0.384, -2.674e-9
0.383, -2.626e-9
0.382, -2.589e-9
0.381, -2.554e-9
0.380, -2.507e-9
0.379, -2.473e-9
0.378, -2.442e-9
0.377, -2.400e-9
0.376, -2.368e-9
0.375, -2.342e-9
0.374, -2.304e-9
0.373, -2.259e-9
0.372, -2.228e-9
0.371, -2.213e-9
0.370, -2.186e-9
0.369, -2.152e-9
0.368, -2.118e-9
0.367, -2.087e-9
0.366, -2.056e-9
0.365, -2.018e-9
0.364, -1.997e-9
0.363, -1.987e-9
0.362, -1.961e-9
0.361, -1.931e-9
0.360, -1.902e-9
0.359, -1.869e-9
0.358, -1.835e-9
0.357, -1.816e-9
0.356, -1.804e-9
0.355, -1.778e-9
0.354, -1.753e-9
0.353, -1.732e-9
0.352, -1.702e-9
0.351, -1.673e-9
0.350, -1.659e-9
0.349, -1.646e-9
0.348, -1.615e-9
0.347, -1.587e-9
0.346, -1.577e-9
0.345, -1.561e-9
0.344, -1.529e-9
0.343, -1.502e-9
0.342, -1.491e-9
0.341, -1.474e-9
0.340, -1.451e-9
0.339, -1.433e-9
0.338, -1.405e-9
0.337, -1.375e-9
0.336, -1.365e-9
0.335, -1.360e-9
0.334, -1.338e-9
0.333, -1.308e-9
0.332, -1.294e-9
0.331, -1.278e-9
0.330, -1.248e-9
0.329, -1.230e-9
0.328, -1.227e-9
0.327, -1.214e-9
0.326, -1.186e-9
0.325, -1.165e-9
0.324, -1.156e-9
0.323, -1.134e-9
0.322, -1.106e-9
0.321, -1.096e-9
0.320, -1.088e-9
0.319, -1.066e-9
0.318, -1.047e-9
0.317, -1.033e-9
0.316, -1.013e-9
0.315, -9.912e-10
0.314, -9.809e-10
0.313, -9.693e-10
0.312, -9.472e-10
0.311, -9.329e-10
0.310, -9.239e-10
0.309, -9.062e-10
0.308, -8.798e-10
0.307, -8.609e-10
0.306, -8.524e-10
0.305, -8.449e-10
0.304, -8.248e-10
0.303, -8.014e-10
0.302, -7.877e-10
0.301, -7.699e-10
0.300, -7.463e-10
0.299, -7.411e-10
0.298, -7.314e-10
0.297, -7.060e-10
0.296, -6.887e-10
0.295, -6.736e-10
0.294, -6.575e-10
0.293, -6.423e-10
0.292, -6.312e-10
0.291, -6.136e-10
0.290, -5.904e-10
0.289, -5.768e-10
0.288, -5.614e-10
0.287, -5.508e-10
0.286, -5.377e-10
0.285, -5.131e-10
0.284, -4.975e-10
0.283, -4.884e-10
0.282, -4.610e-10
0.281, -4.358e-10
0.280, -4.239e-10
0.279, -4.117e-10
0.278, -3.934e-10
0.277, -3.767e-10
0.276, -3.615e-10
0.275, -3.407e-10
0.274, -3.148e-10
0.273, -2.914e-10
0.272, -2.800e-10
0.271, -2.746e-10
0.270, -2.554e-10
0.269, -2.297e-10
0.268, -2.082e-10
0.267, -1.868e-10
0.266, -1.639e-10
0.265, -1.453e-10
0.264, -1.289e-10
0.263, -1.081e-10
0.262, -8.940e-11
0.261, -6.683e-11
0.260, -3.631e-11
0.259, -1.464e-11
0.258, -1.562e-12
0.257, 1.725e-11
0.256, 4.280e-11
0.255, 6.726e-11
0.254, 8.862e-11
0.253, 1.133e-10
0.252, 1.391e-10
0.251, 1.598e-10
0.250, 1.814e-10
0.249, 2.036e-10
0.248, 2.329e-10
0.247, 2.604e-10
0.246, 2.857e-10
0.245, 3.143e-10
0.244, 3.366e-10
0.243, 3.602e-10
0.242, 3.909e-10
0.241, 4.144e-10
0.240, 4.359e-10
0.239, 4.694e-10
0.238, 5.015e-10
0.237, 5.265e-10
0.236, 5.468e-10
0.235, 5.749e-10
0.234, 6.066e-10
0.233, 6.375e-10
0.232, 6.625e-10
0.231, 6.880e-10
0.230, 7.201e-10
0.229, 7.509e-10
0.228, 7.761e-10
0.227, 8.019e-10
0.226, 8.320e-10
0.225, 8.647e-10
0.224, 8.957e-10
0.223, 9.211e-10
0.222, 9.454e-10
0.221, 9.760e-10
0.220, 1.006e-9
0.219, 1.029e-9
0.218, 1.062e-9
0.217, 1.091e-9
0.216, 1.116e-9
0.215, 1.146e-9
0.214, 1.173e-9
0.213, 1.200e-9
0.212, 1.226e-9
0.211, 1.251e-9
0.210, 1.279e-9
0.209, 1.303e-9
0.208, 1.332e-9
0.207, 1.360e-9
0.206, 1.380e-9
0.205, 1.404e-9
0.204, 1.429e-9
0.203, 1.454e-9
0.202, 1.478e-9
0.201, 1.497e-9
0.200, 1.521e-9
0.199, 1.544e-9
0.198, 1.565e-9
0.197, 1.585e-9
0.196, 1.607e-9
0.195, 1.626e-9
0.194, 1.646e-9
0.193, 1.665e-9
0.192, 1.683e-9
0.191, 1.702e-9
0.190, 1.720e-9
0.189, 1.738e-9
0.188, 1.755e-9
0.187, 1.770e-9
0.186, 1.786e-9
0.185, 1.803e-9
0.184, 1.817e-9
0.183, 1.834e-9
0.182, 1.847e-9
0.181, 1.861e-9
0.180, 1.877e-9
0.179, 1.887e-9
0.178, 1.900e-9
0.177, 1.912e-9
0.176, 1.925e-9
0.175, 1.937e-9
0.174, 1.947e-9
0.173, 1.959e-9
0.172, 1.968e-9
0.171, 1.977e-9
0.170, 1.990e-9
0.169, 1.997e-9
0.168, 2.007e-9
0.167, 2.018e-9
0.166, 2.026e-9
0.165, 2.033e-9
0.164, 2.041e-9
0.163, 2.050e-9
0.162, 2.058e-9
0.161, 2.065e-9
0.160, 2.074e-9
0.159, 2.079e-9
0.158, 2.087e-9
0.157, 2.095e-9
0.156, 2.100e-9
0.155, 2.107e-9
0.154, 2.112e-9
0.153, 2.122e-9
0.152, 2.127e-9
0.151, 2.131e-9
0.150, 2.136e-9
0.149, 2.144e-9
0.148, 2.150e-9
0.147, 2.153e-9
0.146, 2.159e-9
0.145, 2.165e-9
0.144, 2.169e-9
0.143, 2.175e-9
0.142, 2.179e-9
0.141, 2.184e-9
0.140, 2.193e-9
0.139, 2.195e-9
0.138, 2.198e-9
0.137, 2.202e-9
0.136, 2.209e-9
0.135, 2.215e-9
0.134, 2.215e-9
0.133, 2.221e-9
0.132, 2.228e-9
0.131, 2.232e-9
0.130, 2.236e-9
0.129, 2.237e-9
0.128, 2.244e-9
0.127, 2.248e-9
0.126, 2.252e-9
0.125, 2.257e-9
0.124, 2.262e-9
0.123, 2.266e-9
0.122, 2.269e-9
0.121, 2.271e-9
0.120, 2.277e-9
0.119, 2.284e-9
0.118, 2.289e-9
0.117, 2.292e-9
0.116, 2.294e-9
0.115, 2.299e-9
0.114, 2.302e-9
0.113, 2.308e-9
0.112, 2.312e-9
0.111, 2.318e-9
0.110, 2.323e-9
0.109, 2.325e-9
0.108, 2.328e-9
0.107, 2.332e-9
0.106, 2.338e-9
0.105, 2.343e-9
0.104, 2.348e-9
0.103, 2.354e-9
0.102, 2.355e-9
0.101, 2.359e-9
0.100, 2.366e-9
0.099, 2.368e-9
0.098, 2.373e-9
0.097, 2.379e-9
0.096, 2.385e-9
0.095, 2.387e-9
0.094, 2.389e-9
0.093, 2.397e-9
0.092, 2.403e-9
0.091, 2.404e-9
0.090, 2.410e-9
0.089, 2.415e-9
0.088, 2.421e-9
0.087, 2.424e-9
0.086, 2.426e-9
0.085, 2.434e-9
0.084, 2.439e-9
0.083, 2.445e-9
0.082, 2.450e-9
0.081, 2.454e-9
0.080, 2.458e-9
0.079, 2.462e-9
0.078, 2.469e-9
0.077, 2.473e-9
0.076, 2.479e-9
0.075, 2.485e-9
0.074, 2.489e-9
0.073, 2.492e-9
0.072, 2.497e-9
0.071, 2.504e-9
0.070, 2.510e-9
0.069, 2.515e-9
0.068, 2.520e-9
0.067, 2.524e-9
0.066, 2.529e-9
0.065, 2.535e-9
0.064, 2.538e-9
0.063, 2.547e-9
0.062, 2.552e-9
0.061, 2.558e-9
0.060, 2.562e-9
0.059, 2.565e-9
0.058, 2.572e-9
0.057, 2.578e-9
0.056, 2.583e-9
0.055, 2.590e-9
0.054, 2.595e-9
0.053, 2.602e-9
0.052, 2.605e-9
0.051, 2.610e-9
0.050, 2.617e-9
0.049, 2.622e-9
0.048, 2.629e-9
0.047, 2.634e-9
0.046, 2.638e-9
0.045, 2.644e-9
0.044, 2.650e-9
0.043, 2.655e-9
0.042, 2.661e-9
0.041, 2.666e-9
0.040, 2.672e-9
0.039, 2.675e-9
0.038, 2.681e-9
0.037, 2.687e-9
0.036, 2.693e-9
0.035, 2.699e-9
0.034, 2.703e-9
0.033, 2.708e-9
0.032, 2.714e-9
0.031, 2.721e-9
0.030, 2.725e-9
0.029, 2.729e-9
0.028, 2.737e-9
0.027, 2.742e-9
0.026, 2.748e-9
0.025, 2.753e-9
0.024, 2.756e-9
0.023, 2.763e-9
0.022, 2.769e-9
0.021, 2.773e-9
0.020, 2.779e-9
0.019, 2.785e-9
0.018, 2.791e-9
0.017, 2.793e-9
0.016, 2.799e-9
0.015, 2.805e-9
0.014, 2.809e-9
0.013, 2.818e-9
0.012, 2.823e-9
0.011, 2.826e-9
0.010, 2.831e-9
0.009, 2.836e-9
0.008, 2.842e-9
0.007, 2.848e-9
0.006, 2.854e-9
0.005, 2.861e-9
0.004, 2.864e-9
0.003, 2.868e-9
0.002, 2.874e-9
0.001, 2.880e-9
