Results:

Channel 1:
Segment 1:

Segment 2:

Potential/V, Current/A

0.000, 1.120e-9
0.001, 1.089e-9
0.002, 1.060e-9
0.003, 1.036e-9
0.004, 1.014e-9
0.005, 9.929e-10
0.006, 9.735e-10
0.007, 9.545e-10
0.008, 9.360e-10
0.009, 9.189e-10
0.010, 9.012e-10
0.011, 8.851e-10
0.012, 8.680e-10
0.013, 8.520e-10
0.014, 8.360e-10
0.015, 8.197e-10
0.016, 8.052e-10
0.017, 7.890e-10
0.018, 7.741e-10
0.019, 7.591e-10
0.020, 7.441e-10
0.021, 7.300e-10
0.022, 7.151e-10
0.023, 7.010e-10
0.024, 6.872e-10
0.025, 6.729e-10
0.026, 6.595e-10
0.027, 6.456e-10
0.028, 6.321e-10
0.029, 6.194e-10
0.030, 6.054e-10
0.031, 5.929e-10
0.032, 5.798e-10
0.033, 5.668e-10
0.034, 5.545e-10
0.035, 5.412e-10
0.036, 5.293e-10
0.037, 5.165e-10
0.038, 5.046e-10
0.039, 4.921e-10
0.040, 4.799e-10
0.041, 4.684e-10
0.042, 4.561e-10
0.043, 4.444e-10
0.044, 4.327e-10
0.045, 4.210e-10
0.046, 4.094e-10
0.047, 3.981e-10
0.048, 3.868e-10
0.049, 3.758e-10
0.050, 3.640e-10
0.051, 3.533e-10
0.052, 3.419e-10
0.053, 3.309e-10
0.054, 3.205e-10
0.055, 3.089e-10
0.056, 2.989e-10
0.057, 2.875e-10
0.058, 2.773e-10
0.059, 2.669e-10
0.060, 2.558e-10
0.061, 2.459e-10
0.062, 2.351e-10
0.063, 2.249e-10
0.064, 2.150e-10
0.065, 2.043e-10
0.066, 1.945e-10
0.067, 1.843e-10
0.068, 1.737e-10
0.069, 1.640e-10
0.070, 1.534e-10
0.071, 1.441e-10
0.072, 1.339e-10
0.073, 1.239e-10
0.074, 1.148e-10
0.075, 1.040e-10
0.076, 9.490e-11
0.077, 8.470e-11
0.078, 7.510e-11
0.079, 6.542e-11
0.080, 5.547e-11
0.081, 4.615e-11
0.082, 3.638e-11
0.083, 2.689e-11
0.084, 1.706e-11
0.085, 7.294e-12
0.086, -2.215e-12
0.087, -1.173e-11
0.088, -2.150e-11
0.089, -3.083e-11
0.090, -4.068e-11
0.091, -4.975e-11
0.092, -5.989e-11
0.093, -6.923e-11
0.094, -7.865e-11
0.095, -8.905e-11
0.096, -9.777e-11
0.097, -1.084e-10
0.098, -1.176e-10
0.099, -1.275e-10
0.100, -1.378e-10
0.101, -1.468e-10
0.102, -1.571e-10
0.103, -1.671e-10
0.104, -1.771e-10
0.105, -1.874e-10
0.106, -1.971e-10
0.107, -2.075e-10
0.108, -2.182e-10
0.109, -2.279e-10
0.110, -2.392e-10
0.111, -2.488e-10
0.112, -2.597e-10
0.113, -2.705e-10
0.114, -2.809e-10
0.115, -2.925e-10
0.116, -3.025e-10
0.117, -3.143e-10
0.118, -3.251e-10
0.119, -3.368e-10
0.120, -3.485e-10
0.121, -3.598e-10
0.122, -3.720e-10
0.123, -3.840e-10
0.124, -3.962e-10
0.125, -4.084e-10
0.126, -4.208e-10
0.127, -4.338e-10
0.128, -4.469e-10
0.129, -4.594e-10
0.130, -4.734e-10
0.131, -4.864e-10
0.132, -5.005e-10
0.133, -5.145e-10
0.134, -5.287e-10
0.135, -5.439e-10
0.136, -5.578e-10
0.137, -5.735e-10
0.138, -5.884e-10
0.139, -6.040e-10
0.140, -6.203e-10
0.141, -6.357e-10
0.142, -6.530e-10
0.143, -6.692e-10
0.144, -6.867e-10
0.145, -7.049e-10
0.146, -7.225e-10
0.147, -7.409e-10
0.148, -7.598e-10
0.149, -7.784e-10
0.150, -7.986e-10
0.151, -8.181e-10
0.152, -8.388e-10
0.153, -8.601e-10
0.154, -8.811e-10
0.155, -9.033e-10
0.156, -9.247e-10
0.157, -9.478e-10
0.158, -9.709e-10
0.159, -9.941e-10
0.160, -1.018e-9
0.161, -1.043e-9
0.162, -1.069e-9
0.163, -1.094e-9
0.164, -1.120e-9
0.165, -1.147e-9
0.166, -1.174e-9
0.167, -1.202e-9
0.168, -1.231e-9
0.169, -1.259e-9
0.170, -1.289e-9
0.171, -1.319e-9
0.172, -1.350e-9
0.173, -1.381e-9
0.174, -1.412e-9
0.175, -1.444e-9
0.176, -1.476e-9
0.177, -1.511e-9
0.178, -1.544e-9
0.179, -1.578e-9
0.180, -1.613e-9
0.181, -1.648e-9
0.182, -1.685e-9
0.183, -1.721e-9
0.184, -1.758e-9
0.185, -1.795e-9
0.186, -1.832e-9
0.187, -1.871e-9
0.188, -1.910e-9
0.189, -1.948e-9
0.190, -1.987e-9
0.191, -2.026e-9
0.192, -2.066e-9
0.193, -2.107e-9
0.194, -2.147e-9
0.195, -2.188e-9
0.196, -2.228e-9
0.197, -2.269e-9
0.198, -2.311e-9
0.199, -2.352e-9
0.200, -2.394e-9
0.201, -2.435e-9
0.202, -2.478e-9
0.203, -2.519e-9
0.204, -2.561e-9
0.205, -2.603e-9
0.206, -2.645e-9
0.207, -2.686e-9
0.208, -2.727e-9
0.209, -2.767e-9
0.210, -2.808e-9
0.211, -2.848e-9
0.212, -2.889e-9
0.213, -2.929e-9
0.214, -2.968e-9
0.215, -3.008e-9
0.216, -3.046e-9
0.217, -3.084e-9
0.218, -3.122e-9
0.219, -3.160e-9
0.220, -3.197e-9
0.221, -3.233e-9
0.222, -3.270e-9
0.223, -3.305e-9
0.224, -3.340e-9
0.225, -3.374e-9
0.226, -3.408e-9
0.227, -3.441e-9
0.228, -3.473e-9
0.229, -3.504e-9
0.230, -3.536e-9
0.231, -3.566e-9
0.232, -3.596e-9
0.233, -3.625e-9
0.234, -3.653e-9
0.235, -3.682e-9
0.236, -3.708e-9
0.237, -3.734e-9
0.238, -3.760e-9
0.239, -3.786e-9
0.240, -3.811e-9
0.241, -3.834e-9
0.242, -3.858e-9
0.243, -3.879e-9
0.244, -3.902e-9
0.245, -3.923e-9
0.246, -3.943e-9
0.247, -3.963e-9
0.248, -3.982e-9
0.249, -4.000e-9
0.250, -4.020e-9
0.251, -4.037e-9
0.252, -4.055e-9
0.253, -4.071e-9
0.254, -4.087e-9
0.255, -4.104e-9
0.256, -4.117e-9
0.257, -4.132e-9
0.258, -4.146e-9
0.259, -4.160e-9
0.260, -4.174e-9
0.261, -4.186e-9
0.262, -4.197e-9
0.263, -4.208e-9
0.264, -4.220e-9
0.265, -4.232e-9
0.266, -4.243e-9
0.267, -4.253e-9
0.268, -4.263e-9
0.269, -4.272e-9
0.270, -4.282e-9
0.271, -4.289e-9
0.272, -4.298e-9
0.273, -4.307e-9
0.274, -4.315e-9
0.275, -4.324e-9
0.276, -4.330e-9
0.277, -4.337e-9
0.278, -4.343e-9
0.279, -4.349e-9
0.280, -4.356e-9
0.281, -4.362e-9
0.282, -4.369e-9
0.283, -4.374e-9
0.284, -4.381e-9
0.285, -4.386e-9
0.286, -4.391e-9
0.287, -4.396e-9
0.288, -4.400e-9
0.289, -4.405e-9
0.290, -4.411e-9
0.291, -4.415e-9
0.292, -4.418e-9
0.293, -4.423e-9
0.294, -4.427e-9
0.295, -4.432e-9
0.296, -4.435e-9
0.297, -4.440e-9
0.298, -4.443e-9
0.299, -4.446e-9
0.300, -4.451e-9
0.301, -4.454e-9
0.302, -4.457e-9
0.303, -4.460e-9
0.304, -4.464e-9
0.305, -4.467e-9
0.306, -4.470e-9
0.307, -4.472e-9
0.308, -4.475e-9
0.309, -4.479e-9
0.310, -4.481e-9
0.311, -4.482e-9
0.312, -4.485e-9
0.313, -4.488e-9
0.314, -4.490e-9
0.315, -4.494e-9
0.316, -4.495e-9
0.317, -4.497e-9
0.318, -4.500e-9
0.319, -4.502e-9
0.320, -4.505e-9
0.321, -4.508e-9
0.322, -4.511e-9
0.323, -4.513e-9
0.324, -4.514e-9
0.325, -4.516e-9
0.326, -4.518e-9
0.327, -4.520e-9
0.328, -4.522e-9
0.329, -4.525e-9
0.330, -4.528e-9
0.331, -4.529e-9
0.332, -4.530e-9
0.333, -4.531e-9
0.334, -4.533e-9
0.335, -4.536e-9
0.336, -4.537e-9
0.337, -4.539e-9
0.338, -4.540e-9
0.339, -4.540e-9
0.340, -4.544e-9
0.341, -4.546e-9
0.342, -4.548e-9
0.343, -4.550e-9
0.344, -4.552e-9
0.345, -4.554e-9
0.346, -4.555e-9
0.347, -4.557e-9
0.348, -4.560e-9
0.349, -4.561e-9
0.350, -4.563e-9
0.351, -4.564e-9
0.352, -4.567e-9
0.353, -4.570e-9
0.354, -4.571e-9
0.355, -4.573e-9
0.356, -4.574e-9
0.357, -4.574e-9
0.358, -4.576e-9
0.359, -4.579e-9
0.360, -4.580e-9
0.361, -4.581e-9
0.362, -4.585e-9
0.363, -4.587e-9
0.364, -4.588e-9
0.365, -4.589e-9
0.366, -4.590e-9
0.367, -4.593e-9
0.368, -4.595e-9
0.369, -4.596e-9
0.370, -4.599e-9
0.371, -4.601e-9
0.372, -4.603e-9
0.373, -4.605e-9
0.374, -4.607e-9
0.375, -4.609e-9
0.376, -4.610e-9
0.377, -4.613e-9
0.378, -4.614e-9
0.379, -4.616e-9
0.380, -4.618e-9
0.381, -4.618e-9
0.382, -4.621e-9
0.383, -4.621e-9
0.384, -4.623e-9
0.385, -4.627e-9
0.386, -4.629e-9
0.387, -4.631e-9
0.388, -4.633e-9
0.389, -4.633e-9
0.390, -4.635e-9
0.391, -4.638e-9
0.392, -4.640e-9
0.393, -4.642e-9
0.394, -4.643e-9
0.395, -4.644e-9
0.396, -4.645e-9
0.397, -4.648e-9
0.398, -4.650e-9
0.399, -4.653e-9
0.400, -4.654e-9
0.401, -4.655e-9
0.402, -4.658e-9
0.403, -4.658e-9
0.404, -4.660e-9
0.405, -4.661e-9
0.406, -4.664e-9
0.407, -4.666e-9
0.408, -4.667e-9
0.409, -4.669e-9
0.410, -4.671e-9
0.411, -4.674e-9
0.412, -4.676e-9
0.413, -4.677e-9
0.414, -4.679e-9
0.415, -4.682e-9
0.416, -4.683e-9
0.417, -4.686e-9
0.418, -4.688e-9
0.419, -4.688e-9
0.420, -4.690e-9
0.421, -4.691e-9
0.422, -4.694e-9
0.423, -4.695e-9
0.424, -4.696e-9
0.425, -4.700e-9
0.426, -4.702e-9
0.427, -4.704e-9
0.428, -4.706e-9
0.429, -4.707e-9
0.430, -4.709e-9
0.431, -4.710e-9
0.432, -4.712e-9
0.433, -4.716e-9
0.434, -4.717e-9
0.435, -4.720e-9
0.436, -4.720e-9
0.437, -4.722e-9
0.438, -4.723e-9
0.439, -4.725e-9
0.440, -4.728e-9
0.441, -4.730e-9
0.442, -4.733e-9
0.443, -4.735e-9
0.444, -4.738e-9
0.445, -4.740e-9
0.446, -4.741e-9
0.447, -4.743e-9
0.448, -4.743e-9
0.449, -4.747e-9
0.450, -4.749e-9
0.451, -4.752e-9
0.452, -4.753e-9
0.453, -4.754e-9
0.454, -4.756e-9
0.455, -4.759e-9
0.456, -4.759e-9
0.457, -4.762e-9
0.458, -4.763e-9
0.459, -4.766e-9
0.460, -4.769e-9
0.461, -4.770e-9
0.462, -4.774e-9
0.463, -4.774e-9
0.464, -4.775e-9
0.465, -4.777e-9
0.466, -4.780e-9
0.467, -4.782e-9
0.468, -4.784e-9
0.469, -4.786e-9
0.470, -4.788e-9
0.471, -4.789e-9
0.472, -4.792e-9
0.473, -4.794e-9
0.474, -4.796e-9
0.475, -4.799e-9
0.476, -4.800e-9
0.477, -4.802e-9
0.478, -4.803e-9
0.479, -4.805e-9
0.480, -4.806e-9
0.481, -4.807e-9
0.482, -4.810e-9
0.483, -4.812e-9
0.484, -4.815e-9
0.485, -4.818e-9
0.486, -4.819e-9
0.487, -4.821e-9
0.488, -4.823e-9
0.489, -4.825e-9
0.490, -4.828e-9
0.491, -4.830e-9
0.492, -4.831e-9
0.493, -4.832e-9
0.494, -4.834e-9
0.495, -4.837e-9
0.496, -4.838e-9
0.497, -4.840e-9
0.498, -4.842e-9
0.499, -4.844e-9
0.500, -4.846e-9
0.501, -4.848e-9
0.502, -4.853e-9
0.503, -4.855e-9
0.504, -4.856e-9
0.505, -4.858e-9
0.506, -4.859e-9
0.507, -4.861e-9
0.508, -4.863e-9
0.509, -4.865e-9
0.510, -4.867e-9
0.511, -4.869e-9
0.512, -4.872e-9
0.513, -4.874e-9
0.514, -4.877e-9
0.515, -4.879e-9
0.516, -4.880e-9
0.517, -4.881e-9
0.518, -4.884e-9
0.519, -4.887e-9
0.520, -4.890e-9
0.521, -4.892e-9
0.522, -4.894e-9
0.523, -4.895e-9
0.524, -4.897e-9
0.525, -4.899e-9
0.526, -4.901e-9
0.527, -4.903e-9
0.528, -4.905e-9
0.529, -4.907e-9
0.530, -4.909e-9
0.531, -4.912e-9
0.532, -4.914e-9
0.533, -4.917e-9
0.534, -4.919e-9
0.535, -4.922e-9
0.536, -4.922e-9
0.537, -4.926e-9
0.538, -4.929e-9
0.539, -4.931e-9
0.540, -4.933e-9
0.541, -4.934e-9
0.542, -4.937e-9
0.543, -4.938e-9
0.544, -4.941e-9
0.545, -4.944e-9
0.546, -4.945e-9
0.547, -4.948e-9
0.548, -4.950e-9
0.549, -4.952e-9
0.550, -4.953e-9
0.551, -4.957e-9
0.552, -4.959e-9
0.553, -4.962e-9
0.554, -4.965e-9
0.555, -4.967e-9
0.556, -4.969e-9
0.557, -4.971e-9
0.558, -4.971e-9
0.559, -4.974e-9
0.560, -4.978e-9
0.561, -4.978e-9
0.562, -4.982e-9
0.563, -4.984e-9
0.564, -4.986e-9
0.565, -4.988e-9
0.566, -4.991e-9
0.567, -4.993e-9
0.568, -4.994e-9
0.569, -4.997e-9
0.570, -5.000e-9
0.571, -5.003e-9
0.572, -5.005e-9
0.573, -5.006e-9
0.574, -5.011e-9
0.575, -5.015e-9
0.576, -5.017e-9
0.577, -5.020e-9
0.578, -5.021e-9
0.579, -5.023e-9
0.580, -5.026e-9
0.581, -5.027e-9
0.582, -5.030e-9
0.583, -5.031e-9
0.584, -5.035e-9
0.585, -5.037e-9
0.586, -5.038e-9
0.587, -5.040e-9
0.588, -5.043e-9
0.589, -5.047e-9
0.590, -5.049e-9
0.591, -5.051e-9
0.592, -5.055e-9
0.593, -5.058e-9
0.594, -5.061e-9
0.595, -5.064e-9
0.596, -5.066e-9
0.597, -5.068e-9
0.598, -5.070e-9
0.599, -5.073e-9
0.600, -5.076e-9
0.601, -5.077e-9
0.602, -5.080e-9
0.603, -5.083e-9
0.604, -5.088e-9
0.605, -5.090e-9
0.606, -5.092e-9
0.607, -5.095e-9
0.608, -5.096e-9
0.609, -5.099e-9
0.610, -5.103e-9
0.611, -5.106e-9
0.612, -5.108e-9
0.613, -5.110e-9
0.614, -5.113e-9
0.615, -5.116e-9
0.616, -5.119e-9
0.617, -5.122e-9
0.618, -5.125e-9
0.619, -5.128e-9
0.620, -5.131e-9
0.621, -5.133e-9
0.622, -5.137e-9
0.623, -5.138e-9
0.624, -5.140e-9
0.625, -5.143e-9
0.626, -5.146e-9
0.627, -5.150e-9
0.628, -5.153e-9
0.629, -5.158e-9
0.630, -5.160e-9
0.631, -5.161e-9
0.632, -5.164e-9
0.633, -5.167e-9
0.634, -5.171e-9
0.635, -5.175e-9
0.636, -5.178e-9
0.637, -5.181e-9
0.638, -5.184e-9
0.639, -5.187e-9
0.640, -5.190e-9
0.641, -5.193e-9
0.642, -5.196e-9
0.643, -5.199e-9
0.644, -5.202e-9
0.645, -5.205e-9
0.646, -5.208e-9
0.647, -5.211e-9
0.648, -5.215e-9
0.649, -5.218e-9
0.650, -5.221e-9
0.651, -5.225e-9
0.652, -5.227e-9
0.653, -5.230e-9
0.654, -5.233e-9
0.655, -5.236e-9
0.656, -5.239e-9
0.657, -5.243e-9
0.658, -5.245e-9
0.659, -5.248e-9
0.660, -5.253e-9
0.661, -5.257e-9
0.662, -5.261e-9
0.663, -5.264e-9
0.664, -5.266e-9
0.665, -5.270e-9
0.666, -5.273e-9
0.667, -5.277e-9
0.668, -5.280e-9
0.669, -5.283e-9
0.670, -5.286e-9
0.671, -5.289e-9
0.672, -5.293e-9
0.673, -5.297e-9
0.674, -5.301e-9
0.675, -5.304e-9
0.676, -5.309e-9
0.677, -5.313e-9
0.678, -5.316e-9
0.679, -5.318e-9
0.680, -5.321e-9
0.681, -5.324e-9
0.682, -5.329e-9
0.683, -5.333e-9
0.684, -5.337e-9
0.685, -5.341e-9
0.686, -5.343e-9
0.687, -5.347e-9
0.688, -5.350e-9
0.689, -5.355e-9
0.690, -5.358e-9
0.691, -5.360e-9
0.692, -5.365e-9
0.693, -5.369e-9
0.694, -5.374e-9
0.695, -5.378e-9
0.696, -5.382e-9
0.697, -5.386e-9
0.698, -5.389e-9
0.699, -5.392e-9
0.700, -5.396e-9
0.701, -5.399e-9
0.702, -5.403e-9
0.703, -5.406e-9
0.704, -5.410e-9
0.705, -5.415e-9
0.706, -5.417e-9
0.707, -5.422e-9
0.708, -5.425e-9
0.709, -5.429e-9
0.710, -5.433e-9
0.711, -5.438e-9
0.712, -5.442e-9
0.713, -5.446e-9
0.714, -5.451e-9
0.715, -5.456e-9
0.716, -5.459e-9
0.717, -5.463e-9
0.718, -5.467e-9
0.719, -5.473e-9
0.720, -5.476e-9
0.721, -5.479e-9
0.722, -5.485e-9
0.723, -5.488e-9
0.724, -5.492e-9
0.725, -5.497e-9
0.726, -5.501e-9
0.727, -5.506e-9
0.728, -5.510e-9
0.729, -5.514e-9
0.730, -5.518e-9
0.731, -5.522e-9
0.732, -5.529e-9
0.733, -5.533e-9
0.734, -5.537e-9
0.735, -5.541e-9
0.736, -5.545e-9
0.737, -5.550e-9
0.738, -5.555e-9
0.739, -5.559e-9
0.740, -5.564e-9
0.741, -5.568e-9
0.742, -5.574e-9
0.743, -5.578e-9
0.744, -5.583e-9
0.745, -5.587e-9
0.746, -5.591e-9
0.747, -5.596e-9
0.748, -5.600e-9
0.749, -5.605e-9
0.750, -5.610e-9
0.751, -5.616e-9
0.752, -5.621e-9
0.753, -5.624e-9
0.754, -5.629e-9
0.755, -5.635e-9
0.756, -5.639e-9
0.757, -5.644e-9
0.758, -5.648e-9
0.759, -5.653e-9
0.760, -5.657e-9
0.761, -5.662e-9
0.762, -5.668e-9
0.763, -5.673e-9
0.764, -5.678e-9
0.765, -5.683e-9
0.766, -5.688e-9
0.767, -5.693e-9
0.768, -5.697e-9
0.769, -5.702e-9
0.770, -5.706e-9
0.771, -5.712e-9
0.772, -5.718e-9
0.773, -5.723e-9
0.774, -5.727e-9
0.775, -5.732e-9
0.776, -5.737e-9
0.777, -5.743e-9
0.778, -5.748e-9
0.779, -5.754e-9
0.780, -5.759e-9
0.781, -5.764e-9
0.782, -5.770e-9
0.783, -5.775e-9
0.784, -5.780e-9
0.785, -5.786e-9
0.786, -5.790e-9
0.787, -5.796e-9
0.788, -5.801e-9
0.789, -5.807e-9
0.790, -5.812e-9
0.791, -5.816e-9
0.792, -5.821e-9
0.793, -5.826e-9
0.794, -5.833e-9
0.795, -5.839e-9
0.796, -5.845e-9
0.797, -5.850e-9
0.798, -5.857e-9
0.799, -5.861e-9
0.800, -5.849e-9
0.799, -5.786e-9
0.798, -5.731e-9
0.797, -5.681e-9
0.796, -5.638e-9
0.795, -5.600e-9
0.794, -5.564e-9
0.793, -5.530e-9
0.792, -5.496e-9
0.791, -5.465e-9
0.790, -5.435e-9
0.789, -5.408e-9
0.788, -5.379e-9
0.787, -5.350e-9
0.786, -5.324e-9
0.785, -5.298e-9
0.784, -5.273e-9
0.783, -5.249e-9
0.782, -5.226e-9
0.781, -5.204e-9
0.780, -5.182e-9
0.779, -5.159e-9
0.778, -5.138e-9
0.777, -5.117e-9
0.776, -5.097e-9
0.775, -5.076e-9
0.774, -5.056e-9
0.773, -5.037e-9
0.772, -5.017e-9
0.771, -5.000e-9
0.770, -4.981e-9
0.769, -4.963e-9
0.768, -4.946e-9
0.767, -4.929e-9
0.766, -4.912e-9
0.765, -4.895e-9
0.764, -4.878e-9
0.763, -4.862e-9
0.762, -4.846e-9
0.761, -4.830e-9
0.760, -4.814e-9
0.759, -4.798e-9
0.758, -4.784e-9
0.757, -4.770e-9
0.756, -4.755e-9
0.755, -4.740e-9
0.754, -4.725e-9
0.753, -4.710e-9
0.752, -4.695e-9
0.751, -4.683e-9
0.750, -4.669e-9
0.749, -4.656e-9
0.748, -4.645e-9
0.747, -4.631e-9
0.746, -4.617e-9
0.745, -4.604e-9
0.744, -4.591e-9
0.743, -4.578e-9
0.742, -4.565e-9
0.741, -4.553e-9
0.740, -4.541e-9
0.739, -4.528e-9
0.738, -4.517e-9
0.737, -4.506e-9
0.736, -4.494e-9
0.735, -4.481e-9
0.734, -4.469e-9
0.733, -4.458e-9
0.732, -4.447e-9
0.731, -4.437e-9
0.730, -4.426e-9
0.729, -4.414e-9
0.728, -4.403e-9
0.727, -4.391e-9
0.726, -4.382e-9
0.725, -4.372e-9
0.724, -4.361e-9
0.723, -4.351e-9
0.722, -4.340e-9
0.721, -4.329e-9
0.720, -4.320e-9
0.719, -4.309e-9
0.718, -4.299e-9
0.717, -4.289e-9
0.716, -4.279e-9
0.715, -4.270e-9
0.714, -4.260e-9
0.713, -4.252e-9
0.712, -4.240e-9
0.711, -4.231e-9
0.710, -4.221e-9
0.709, -4.212e-9
0.708, -4.203e-9
0.707, -4.193e-9
0.706, -4.184e-9
0.705, -4.175e-9
0.704, -4.165e-9
0.703, -4.155e-9
0.702, -4.145e-9
0.701, -4.137e-9
0.700, -4.130e-9
0.699, -4.120e-9
0.698, -4.112e-9
0.697, -4.102e-9
0.696, -4.094e-9
0.695, -4.084e-9
0.694, -4.075e-9
0.693, -4.066e-9
0.692, -4.056e-9
0.691, -4.050e-9
0.690, -4.041e-9
0.689, -4.032e-9
0.688, -4.024e-9
0.687, -4.016e-9
0.686, -4.009e-9
0.685, -4.001e-9
0.684, -3.993e-9
0.683, -3.985e-9
0.682, -3.976e-9
0.681, -3.967e-9
0.680, -3.959e-9
0.679, -3.951e-9
0.678, -3.944e-9
0.677, -3.936e-9
0.676, -3.929e-9
0.675, -3.920e-9
0.674, -3.911e-9
0.673, -3.905e-9
0.672, -3.896e-9
0.671, -3.888e-9
0.670, -3.881e-9
0.669, -3.874e-9
0.668, -3.865e-9
0.667, -3.858e-9
0.666, -3.850e-9
0.665, -3.842e-9
0.664, -3.834e-9
0.663, -3.826e-9
0.662, -3.821e-9
0.661, -3.813e-9
0.660, -3.806e-9
0.659, -3.798e-9
0.658, -3.791e-9
0.657, -3.783e-9
0.656, -3.775e-9
0.655, -3.767e-9
0.654, -3.760e-9
0.653, -3.754e-9
0.652, -3.746e-9
0.651, -3.739e-9
0.650, -3.732e-9
0.649, -3.725e-9
0.648, -3.717e-9
0.647, -3.710e-9
0.646, -3.703e-9
0.645, -3.696e-9
0.644, -3.688e-9
0.643, -3.682e-9
0.642, -3.675e-9
0.641, -3.668e-9
0.640, -3.662e-9
0.639, -3.654e-9
0.638, -3.648e-9
0.637, -3.640e-9
0.636, -3.634e-9
0.635, -3.627e-9
0.634, -3.619e-9
0.633, -3.613e-9
0.632, -3.605e-9
0.631, -3.600e-9
0.630, -3.593e-9
0.629, -3.586e-9
0.628, -3.579e-9
0.627, -3.573e-9
0.626, -3.566e-9
0.625, -3.560e-9
0.624, -3.553e-9
0.623, -3.547e-9
0.622, -3.540e-9
0.621, -3.532e-9
0.620, -3.526e-9
0.619, -3.518e-9
0.618, -3.512e-9
0.617, -3.506e-9
0.616, -3.499e-9
0.615, -3.492e-9
0.614, -3.486e-9
0.613, -3.480e-9
0.612, -3.472e-9
0.611, -3.466e-9
0.610, -3.459e-9
0.609, -3.453e-9
0.608, -3.447e-9
0.607, -3.441e-9
0.606, -3.435e-9
0.605, -3.428e-9
0.604, -3.421e-9
0.603, -3.416e-9
0.602, -3.409e-9
0.601, -3.403e-9
0.600, -3.396e-9
0.599, -3.389e-9
0.598, -3.384e-9
0.597, -3.377e-9
0.596, -3.370e-9
0.595, -3.364e-9
0.594, -3.358e-9
0.593, -3.352e-9
0.592, -3.345e-9
0.591, -3.340e-9
0.590, -3.333e-9
0.589, -3.327e-9
0.588, -3.322e-9
0.587, -3.315e-9
0.586, -3.309e-9
0.585, -3.302e-9
0.584, -3.295e-9
0.583, -3.289e-9
0.582, -3.284e-9
0.581, -3.278e-9
0.580, -3.273e-9
0.579, -3.267e-9
0.578, -3.261e-9
0.577, -3.253e-9
0.576, -3.247e-9
0.575, -3.241e-9
0.574, -3.235e-9
0.573, -3.230e-9
0.572, -3.223e-9
0.571, -3.218e-9
0.570, -3.210e-9
0.569, -3.204e-9
0.568, -3.199e-9
0.567, -3.192e-9
0.566, -3.187e-9
0.565, -3.180e-9
0.564, -3.175e-9
0.563, -3.169e-9
0.562, -3.162e-9
0.561, -3.157e-9
0.560, -3.152e-9
0.559, -3.146e-9
0.558, -3.140e-9
0.557, -3.133e-9
0.556, -3.127e-9
0.555, -3.122e-9
0.554, -3.116e-9
0.553, -3.111e-9
0.552, -3.104e-9
0.551, -3.099e-9
0.550, -3.093e-9
0.549, -3.087e-9
0.548, -3.081e-9
0.547, -3.075e-9
0.546, -3.068e-9
0.545, -3.063e-9
0.544, -3.057e-9
0.543, -3.052e-9
0.542, -3.046e-9
0.541, -3.039e-9
0.540, -3.033e-9
0.539, -3.027e-9
0.538, -3.022e-9
0.537, -3.017e-9
0.536, -3.012e-9
0.535, -3.006e-9
0.534, -2.999e-9
0.533, -2.994e-9
0.532, -2.987e-9
0.531, -2.983e-9
0.530, -2.977e-9
0.529, -2.971e-9
0.528, -2.966e-9
0.527, -2.959e-9
0.526, -2.954e-9
0.525, -2.950e-9
0.524, -2.945e-9
0.523, -2.939e-9
0.522, -2.933e-9
0.521, -2.926e-9
0.520, -2.921e-9
0.519, -2.915e-9
0.518, -2.910e-9
0.517, -2.904e-9
0.516, -2.898e-9
0.515, -2.893e-9
0.514, -2.886e-9
0.513, -2.881e-9
0.512, -2.875e-9
0.511, -2.871e-9
0.510, -2.866e-9
0.509, -2.860e-9
0.508, -2.855e-9
0.507, -2.848e-9
0.506, -2.843e-9
0.505, -2.837e-9
0.504, -2.833e-9
0.503, -2.827e-9
0.502, -2.821e-9
0.501, -2.816e-9
0.500, -2.810e-9
0.499, -2.805e-9
0.498, -2.800e-9
0.497, -2.794e-9
0.496, -2.789e-9
0.495, -2.784e-9
0.494, -2.777e-9
0.493, -2.773e-9
0.492, -2.768e-9
0.491, -2.762e-9
0.490, -2.756e-9
0.489, -2.752e-9
0.488, -2.747e-9
0.487, -2.739e-9
0.486, -2.735e-9
0.485, -2.730e-9
0.484, -2.725e-9
0.483, -2.720e-9
0.482, -2.715e-9
0.481, -2.709e-9
0.480, -2.704e-9
0.479, -2.698e-9
0.478, -2.693e-9
0.477, -2.687e-9
0.476, -2.682e-9
0.475, -2.677e-9
0.474, -2.671e-9
0.473, -2.667e-9
0.472, -2.661e-9
0.471, -2.656e-9
0.470, -2.652e-9
0.469, -2.646e-9
0.468, -2.642e-9
0.467, -2.635e-9
0.466, -2.631e-9
0.465, -2.626e-9
0.464, -2.621e-9
0.463, -2.615e-9
0.462, -2.610e-9
0.461, -2.605e-9
0.460, -2.599e-9
0.459, -2.593e-9
0.458, -2.589e-9
0.457, -2.584e-9
0.456, -2.579e-9
0.455, -2.574e-9
0.454, -2.569e-9
0.453, -2.565e-9
0.452, -2.559e-9
0.451, -2.554e-9
0.450, -2.548e-9
0.449, -2.543e-9
0.448, -2.539e-9
0.447, -2.533e-9
0.446, -2.528e-9
0.445, -2.522e-9
0.444, -2.517e-9
0.443, -2.513e-9
0.442, -2.507e-9
0.441, -2.502e-9
0.440, -2.496e-9
0.439, -2.492e-9
0.438, -2.488e-9
0.437, -2.482e-9
0.436, -2.476e-9
0.435, -2.472e-9
0.434, -2.467e-9
0.433, -2.464e-9
0.432, -2.458e-9
0.431, -2.454e-9
0.430, -2.448e-9
0.429, -2.443e-9
0.428, -2.438e-9
0.427, -2.433e-9
0.426, -2.429e-9
0.425, -2.424e-9
0.424, -2.420e-9
0.423, -2.414e-9
0.422, -2.408e-9
0.421, -2.404e-9
0.420, -2.399e-9
0.419, -2.394e-9
0.418, -2.390e-9
0.417, -2.385e-9
0.416, -2.381e-9
0.415, -2.375e-9
0.414, -2.371e-9
0.413, -2.366e-9
0.412, -2.360e-9
0.411, -2.355e-9
0.410, -2.349e-9
0.409, -2.345e-9
0.408, -2.341e-9
0.407, -2.335e-9
0.406, -2.331e-9
0.405, -2.326e-9
0.404, -2.321e-9
0.403, -2.317e-9
0.402, -2.311e-9
0.401, -2.306e-9
0.400, -2.302e-9
0.399, -2.297e-9
0.398, -2.293e-9
0.397, -2.288e-9
0.396, -2.283e-9
0.395, -2.278e-9
0.394, -2.274e-9
0.393, -2.270e-9
0.392, -2.265e-9
0.391, -2.260e-9
0.390, -2.255e-9
0.389, -2.251e-9
0.388, -2.246e-9
0.387, -2.240e-9
0.386, -2.237e-9
0.385, -2.232e-9
0.384, -2.227e-9
0.383, -2.221e-9
0.382, -2.216e-9
0.381, -2.211e-9
0.380, -2.207e-9
0.379, -2.202e-9
0.378, -2.197e-9
0.377, -2.193e-9
0.376, -2.189e-9
0.375, -2.184e-9
0.374, -2.180e-9
0.373, -2.175e-9
0.372, -2.169e-9
0.371, -2.165e-9
0.370, -2.160e-9
0.369, -2.155e-9
0.368, -2.151e-9
0.367, -2.145e-9
0.366, -2.140e-9
0.365, -2.136e-9
0.364, -2.132e-9
0.363, -2.126e-9
0.362, -2.121e-9
0.361, -2.116e-9
0.360, -2.111e-9
0.359, -2.105e-9
0.358, -2.101e-9
0.357, -2.096e-9
0.356, -2.091e-9
0.355, -2.086e-9
0.354, -2.081e-9
0.353, -2.076e-9
0.352, -2.071e-9
0.351, -2.067e-9
0.350, -2.062e-9
0.349, -2.057e-9
0.348, -2.052e-9
0.347, -2.046e-9
0.346, -2.042e-9
0.345, -2.036e-9
0.344, -2.030e-9
0.343, -2.025e-9
0.342, -2.020e-9
0.341, -2.015e-9
0.340, -2.009e-9
0.339, -2.005e-9
0.338, -2.000e-9
0.337, -1.994e-9
0.336, -1.989e-9
0.335, -1.983e-9
0.334, -1.978e-9
0.333, -1.973e-9
0.332, -1.967e-9
0.331, -1.961e-9
0.330, -1.955e-9
0.329, -1.950e-9
0.328, -1.944e-9
0.327, -1.938e-9
0.326, -1.933e-9
0.325, -1.926e-9
0.324, -1.920e-9
0.323, -1.914e-9
0.322, -1.908e-9
0.321, -1.902e-9
0.320, -1.896e-9
0.319, -1.889e-9
0.318, -1.884e-9
0.317, -1.877e-9
0.316, -1.871e-9
0.315, -1.864e-9
0.314, -1.856e-9
0.313, -1.850e-9
0.312, -1.841e-9
0.311, -1.834e-9
0.310, -1.826e-9
0.309, -1.820e-9
0.308, -1.812e-9
0.307, -1.804e-9
0.306, -1.796e-9
0.305, -1.787e-9
0.304, -1.780e-9
0.303, -1.772e-9
0.302, -1.763e-9
0.301, -1.754e-9
0.300, -1.747e-9
0.299, -1.739e-9
0.298, -1.730e-9
0.297, -1.721e-9
0.296, -1.712e-9
0.295, -1.702e-9
0.294, -1.692e-9
0.293, -1.684e-9
0.292, -1.672e-9
0.291, -1.664e-9
0.290, -1.652e-9
0.289, -1.642e-9
0.288, -1.632e-9
0.287, -1.621e-9
0.286, -1.610e-9
0.285, -1.598e-9
0.284, -1.586e-9
0.283, -1.574e-9
0.282, -1.561e-9
0.281, -1.550e-9
0.280, -1.537e-9
0.279, -1.524e-9
0.278, -1.511e-9
0.277, -1.497e-9
0.276, -1.483e-9
0.275, -1.469e-9
0.274, -1.452e-9
0.273, -1.438e-9
0.272, -1.423e-9
0.271, -1.408e-9
0.270, -1.392e-9
0.269, -1.375e-9
0.268, -1.357e-9
0.267, -1.339e-9
0.266, -1.322e-9
0.265, -1.305e-9
0.264, -1.287e-9
0.263, -1.267e-9
0.262, -1.247e-9
0.261, -1.227e-9
0.260, -1.206e-9
0.259, -1.186e-9
0.258, -1.164e-9
0.257, -1.142e-9
0.256, -1.119e-9
0.255, -1.097e-9
0.254, -1.075e-9
0.253, -1.051e-9
0.252, -1.026e-9
0.251, -1.002e-9
0.250, -9.758e-10
0.249, -9.506e-10
0.248, -9.247e-10
0.247, -8.964e-10
0.246, -8.696e-10
0.245, -8.420e-10
0.244, -8.135e-10
0.243, -7.851e-10
0.242, -7.551e-10
0.241, -7.258e-10
0.240, -6.953e-10
0.239, -6.646e-10
0.238, -6.332e-10
0.237, -6.011e-10
0.236, -5.692e-10
0.235, -5.360e-10
0.234, -5.023e-10
0.233, -4.693e-10
0.232, -4.341e-10
0.231, -3.990e-10
0.230, -3.632e-10
0.229, -3.277e-10
0.228, -2.923e-10
0.227, -2.557e-10
0.226, -2.195e-10
0.225, -1.822e-10
0.224, -1.450e-10
0.223, -1.074e-10
0.222, -7.001e-11
0.221, -3.254e-11
0.220, 6.139e-12
0.219, 4.398e-11
0.218, 8.118e-11
0.217, 1.193e-10
0.216, 1.576e-10
0.215, 1.959e-10
0.214, 2.344e-10
0.213, 2.721e-10
0.212, 3.110e-10
0.211, 3.483e-10
0.210, 3.872e-10
0.209, 4.250e-10
0.208, 4.629e-10
0.207, 5.012e-10
0.206, 5.373e-10
0.205, 5.760e-10
0.204, 6.135e-10
0.203, 6.498e-10
0.202, 6.861e-10
0.201, 7.213e-10
0.200, 7.569e-10
0.199, 7.921e-10
0.198, 8.256e-10
0.197, 8.598e-10
0.196, 8.932e-10
0.195, 9.268e-10
0.194, 9.600e-10
0.193, 9.916e-10
0.192, 1.024e-9
0.191, 1.055e-9
0.190, 1.085e-9
0.189, 1.115e-9
0.188, 1.144e-9
0.187, 1.173e-9
0.186, 1.201e-9
0.185, 1.228e-9
0.184, 1.255e-9
0.183, 1.282e-9
0.182, 1.307e-9
0.181, 1.332e-9
0.180, 1.357e-9
0.179, 1.381e-9
0.178, 1.404e-9
0.177, 1.428e-9
0.176, 1.449e-9
0.175, 1.471e-9
0.174, 1.492e-9
0.173, 1.511e-9
0.172, 1.533e-9
0.171, 1.551e-9
0.170, 1.570e-9
0.169, 1.587e-9
0.168, 1.605e-9
0.167, 1.622e-9
0.166, 1.638e-9
0.165, 1.654e-9
0.164, 1.669e-9
0.163, 1.683e-9
0.162, 1.698e-9
0.161, 1.711e-9
0.160, 1.725e-9
0.159, 1.738e-9
0.158, 1.750e-9
0.157, 1.762e-9
0.156, 1.774e-9
0.155, 1.786e-9
0.154, 1.797e-9
0.153, 1.808e-9
0.152, 1.818e-9
0.151, 1.827e-9
0.150, 1.837e-9
0.149, 1.847e-9
0.148, 1.855e-9
0.147, 1.864e-9
0.146, 1.872e-9
0.145, 1.880e-9
0.144, 1.887e-9
0.143, 1.895e-9
0.142, 1.903e-9
0.141, 1.910e-9
0.140, 1.917e-9
0.139, 1.923e-9
0.138, 1.929e-9
0.137, 1.936e-9
0.136, 1.942e-9
0.135, 1.948e-9
0.134, 1.953e-9
0.133, 1.958e-9
0.132, 1.965e-9
0.131, 1.969e-9
0.130, 1.974e-9
0.129, 1.979e-9
0.128, 1.984e-9
0.127, 1.989e-9
0.126, 1.993e-9
0.125, 1.999e-9
0.124, 2.002e-9
0.123, 2.006e-9
0.122, 2.011e-9
0.121, 2.014e-9
0.120, 2.018e-9
0.119, 2.022e-9
0.118, 2.025e-9
0.117, 2.029e-9
0.116, 2.033e-9
0.115, 2.037e-9
0.114, 2.041e-9
0.113, 2.044e-9
0.112, 2.048e-9
0.111, 2.051e-9
0.110, 2.055e-9
0.109, 2.058e-9
0.108, 2.061e-9
0.107, 2.065e-9
0.106, 2.069e-9
0.105, 2.072e-9
0.104, 2.075e-9
0.103, 2.078e-9
0.102, 2.081e-9
0.101, 2.084e-9
0.100, 2.087e-9
0.099, 2.090e-9
0.098, 2.093e-9
0.097, 2.097e-9
0.096, 2.100e-9
0.095, 2.104e-9
0.094, 2.107e-9
0.093, 2.110e-9
0.092, 2.114e-9
0.091, 2.116e-9
0.090, 2.120e-9
0.089, 2.123e-9
0.088, 2.126e-9
0.087, 2.130e-9
0.086, 2.132e-9
0.085, 2.136e-9
0.084, 2.140e-9
0.083, 2.143e-9
0.082, 2.146e-9
0.081, 2.149e-9
0.080, 2.153e-9
0.079, 2.157e-9
0.078, 2.159e-9
0.077, 2.163e-9
0.076, 2.166e-9
0.075, 2.169e-9
0.074, 2.173e-9
0.073, 2.176e-9
0.072, 2.180e-9
0.071, 2.183e-9
0.070, 2.187e-9
0.069, 2.191e-9
0.068, 2.195e-9
0.067, 2.199e-9
0.066, 2.202e-9
0.065, 2.206e-9
0.064, 2.209e-9
0.063, 2.213e-9
0.062, 2.217e-9
0.061, 2.221e-9
0.060, 2.225e-9
0.059, 2.229e-9
0.058, 2.232e-9
0.057, 2.237e-9
0.056, 2.241e-9
0.055, 2.245e-9
0.054, 2.249e-9
0.053, 2.253e-9
0.052, 2.259e-9
0.051, 2.262e-9
0.050, 2.267e-9
0.049, 2.271e-9
0.048, 2.275e-9
0.047, 2.280e-9
0.046, 2.284e-9
0.045, 2.289e-9
0.044, 2.293e-9
0.043, 2.297e-9
0.042, 2.302e-9
0.041, 2.306e-9
0.040, 2.311e-9
0.039, 2.316e-9
0.038, 2.320e-9
0.037, 2.325e-9
0.036, 2.329e-9
0.035, 2.334e-9
0.034, 2.340e-9
0.033, 2.344e-9
0.032, 2.350e-9
0.031, 2.355e-9
0.030, 2.361e-9
0.029, 2.366e-9
0.028, 2.371e-9
0.027, 2.376e-9
0.026, 2.380e-9
0.025, 2.386e-9
0.024, 2.391e-9
0.023, 2.396e-9
0.022, 2.402e-9
0.021, 2.407e-9
0.020, 2.413e-9
0.019, 2.418e-9
0.018, 2.424e-9
0.017, 2.429e-9
0.016, 2.435e-9
0.015, 2.441e-9
0.014, 2.447e-9
0.013, 2.452e-9
0.012, 2.459e-9
0.011, 2.465e-9
0.010, 2.472e-9
0.009, 2.478e-9
0.008, 2.484e-9
0.007, 2.490e-9
0.006, 2.495e-9
0.005, 2.502e-9
0.004, 2.509e-9
0.003, 2.515e-9
0.002, 2.522e-9
0.001, 2.528e-9
