Results:

Channel 1:
Segment 1:

Segment 2:

Potential/V, Current/A

0.000, 2.975e-10
-0.001, 3.223e-10
-0.002, 3.317e-10
-0.003, 3.400e-10
-0.004, 3.464e-10
-0.005, 3.512e-10
-0.006, 3.578e-10
-0.007, 3.619e-10
-0.008, 3.671e-10
-0.009, 3.717e-10
-0.010, 3.762e-10
-0.011, 3.812e-10
-0.012, 3.841e-10
-0.013, 3.888e-10
-0.014, 3.933e-10
-0.015, 3.969e-10
-0.016, 4.009e-10
-0.017, 4.031e-10
-0.018, 4.080e-10
-0.019, 4.111e-10
-0.020, 4.144e-10
-0.021, 4.185e-10
-0.022, 4.208e-10
-0.023, 4.251e-10
-0.024, 4.283e-10
-0.025, 4.311e-10
-0.026, 4.350e-10
-0.027, 4.368e-10
-0.028, 4.412e-10
-0.029, 4.435e-10
-0.030, 4.466e-10
-0.031, 4.514e-10
-0.032, 4.531e-10
-0.033, 4.574e-10
-0.034, 4.596e-10
-0.035, 4.624e-10
-0.036, 4.663e-10
-0.037, 4.680e-10
-0.038, 4.724e-10
-0.039, 4.753e-10
-0.040, 4.777e-10
-0.041, 4.821e-10
-0.042, 4.836e-10
-0.043, 4.877e-10
-0.044, 4.907e-10
-0.045, 4.926e-10
-0.046, 4.967e-10
-0.047, 4.989e-10
-0.048, 5.031e-10
-0.049, 5.058e-10
-0.050, 5.083e-10
-0.051, 5.124e-10
-0.052, 5.149e-10
-0.053, 5.185e-10
-0.054, 5.213e-10
-0.055, 5.245e-10
-0.056, 5.280e-10
-0.057, 5.305e-10
-0.058, 5.349e-10
-0.059, 5.376e-10
-0.060, 5.400e-10
-0.061, 5.436e-10
-0.062, 5.464e-10
-0.063, 5.507e-10
-0.064, 5.537e-10
-0.065, 5.566e-10
-0.066, 5.608e-10
-0.067, 5.626e-10
-0.068, 5.672e-10
-0.069, 5.699e-10
-0.070, 5.731e-10
-0.071, 5.772e-10
-0.072, 5.798e-10
-0.073, 5.843e-10
-0.074, 5.871e-10
-0.075, 5.902e-10
-0.076, 5.943e-10
-0.077, 5.962e-10
-0.078, 6.010e-10
-0.079, 6.040e-10
-0.080, 6.074e-10
-0.081, 6.118e-10
-0.082, 6.142e-10
-0.083, 6.182e-10
-0.084, 6.218e-10
-0.085, 6.246e-10
-0.086, 6.289e-10
-0.087, 6.313e-10
-0.088, 6.357e-10
-0.089, 6.391e-10
-0.090, 6.427e-10
-0.091, 6.473e-10
-0.092, 6.500e-10
-0.093, 6.546e-10
-0.094, 6.579e-10
-0.095, 6.615e-10
-0.096, 6.653e-10
-0.097, 6.688e-10
-0.098, 6.732e-10
-0.099, 6.765e-10
-0.100, 6.804e-10
-0.101, 6.848e-10
-0.102, 6.877e-10
-0.103, 6.926e-10
-0.104, 6.949e-10
-0.105, 6.987e-10
-0.106, 7.031e-10
-0.107, 7.058e-10
-0.108, 7.116e-10
-0.109, 7.143e-10
-0.110, 7.182e-10
-0.111, 7.227e-10
-0.112, 7.255e-10
-0.113, 7.312e-10
-0.114, 7.337e-10
-0.115, 7.378e-10
-0.116, 7.429e-10
-0.117, 7.453e-10
-0.118, 7.507e-10
-0.119, 7.545e-10
-0.120, 7.585e-10
-0.121, 7.631e-10
-0.122, 7.661e-10
-0.123, 7.715e-10
-0.124, 7.756e-10
-0.125, 7.788e-10
-0.126, 7.836e-10
-0.127, 7.871e-10
-0.128, 7.921e-10
-0.129, 7.965e-10
-0.130, 7.997e-10
-0.131, 8.049e-10
-0.132, 8.082e-10
-0.133, 8.135e-10
-0.134, 8.174e-10
-0.135, 8.218e-10
-0.136, 8.263e-10
-0.137, 8.298e-10
-0.138, 8.349e-10
-0.139, 8.386e-10
-0.140, 8.430e-10
-0.141, 8.485e-10
-0.142, 8.518e-10
-0.143, 8.573e-10
-0.144, 8.609e-10
-0.145, 8.659e-10
-0.146, 8.712e-10
-0.147, 8.746e-10
-0.148, 8.801e-10
-0.149, 8.839e-10
-0.150, 8.886e-10
-0.151, 8.938e-10
-0.152, 8.973e-10
-0.153, 9.035e-10
-0.154, 9.073e-10
-0.155, 9.119e-10
-0.156, 9.176e-10
-0.157, 9.208e-10
-0.158, 9.269e-10
-0.159, 9.307e-10
-0.160, 9.359e-10
-0.161, 9.422e-10
-0.162, 9.454e-10
-0.163, 9.516e-10
-0.164, 9.554e-10
-0.165, 9.599e-10
-0.166, 9.658e-10
-0.167, 9.699e-10
-0.168, 9.760e-10
-0.169, 9.808e-10
-0.170, 9.841e-10
-0.171, 9.902e-10
-0.172, 9.950e-10
-0.173, 1.001e-9
-0.174, 1.006e-9
-0.175, 1.010e-9
-0.176, 1.016e-9
-0.177, 1.020e-9
-0.178, 1.026e-9
-0.179, 1.031e-9
-0.180, 1.036e-9
-0.181, 1.043e-9
-0.182, 1.047e-9
-0.183, 1.054e-9
-0.184, 1.059e-9
-0.185, 1.064e-9
-0.186, 1.071e-9
-0.187, 1.075e-9
-0.188, 1.081e-9
-0.189, 1.086e-9
-0.190, 1.091e-9
-0.191, 1.097e-9
-0.192, 1.102e-9
-0.193, 1.109e-9
-0.194, 1.114e-9
-0.195, 1.120e-9
-0.196, 1.126e-9
-0.197, 1.130e-9
-0.198, 1.137e-9
-0.199, 1.142e-9
-0.200, 1.121e-9
-0.199, 1.071e-9
-0.198, 1.046e-9
-0.197, 1.029e-9
-0.196, 1.011e-9
-0.195, 9.956e-10
-0.194, 9.816e-10
-0.193, 9.657e-10
-0.192, 9.537e-10
-0.191, 9.393e-10
-0.190, 9.268e-10
-0.189, 9.146e-10
-0.188, 9.014e-10
-0.187, 8.911e-10
-0.186, 8.789e-10
-0.185, 8.672e-10
-0.184, 8.575e-10
-0.183, 8.456e-10
-0.182, 8.360e-10
-0.181, 8.256e-10
-0.180, 8.156e-10
-0.179, 8.064e-10
-0.178, 7.951e-10
-0.177, 7.864e-10
-0.176, 7.770e-10
-0.175, 7.681e-10
-0.174, 7.597e-10
-0.173, 7.503e-10
-0.172, 7.428e-10
-0.171, 7.337e-10
-0.170, 7.252e-10
-0.169, 7.174e-10
-0.168, 7.083e-10
-0.167, 7.010e-10
-0.166, 6.923e-10
-0.165, 6.841e-10
-0.164, 6.769e-10
-0.163, 6.690e-10
-0.162, 6.630e-10
-0.161, 6.541e-10
-0.160, 6.474e-10
-0.159, 6.401e-10
-0.158, 6.321e-10
-0.157, 6.265e-10
-0.156, 6.186e-10
-0.155, 6.114e-10
-0.154, 6.058e-10
-0.153, 5.978e-10
-0.152, 5.929e-10
-0.151, 5.854e-10
-0.150, 5.790e-10
-0.149, 5.732e-10
-0.148, 5.654e-10
-0.147, 5.608e-10
-0.146, 5.540e-10
-0.145, 5.476e-10
-0.144, 5.431e-10
-0.143, 5.349e-10
-0.142, 5.310e-10
-0.141, 5.246e-10
-0.140, 5.183e-10
-0.139, 5.136e-10
-0.138, 5.068e-10
-0.137, 5.025e-10
-0.136, 4.968e-10
-0.135, 4.913e-10
-0.134, 4.868e-10
-0.133, 4.806e-10
-0.132, 4.756e-10
-0.131, 4.699e-10
-0.130, 4.654e-10
-0.129, 4.611e-10
-0.128, 4.551e-10
-0.127, 4.511e-10
-0.126, 4.457e-10
-0.125, 4.410e-10
-0.124, 4.367e-10
-0.123, 4.314e-10
-0.122, 4.273e-10
-0.121, 4.216e-10
-0.120, 4.173e-10
-0.119, 4.129e-10
-0.118, 4.078e-10
-0.117, 4.048e-10
-0.116, 3.992e-10
-0.115, 3.953e-10
-0.114, 3.912e-10
-0.113, 3.858e-10
-0.112, 3.832e-10
-0.111, 3.780e-10
-0.110, 3.739e-10
-0.109, 3.703e-10
-0.108, 3.655e-10
-0.107, 3.629e-10
-0.106, 3.575e-10
-0.105, 3.538e-10
-0.104, 3.508e-10
-0.103, 3.458e-10
-0.102, 3.431e-10
-0.101, 3.386e-10
-0.100, 3.346e-10
-0.099, 3.315e-10
-0.098, 3.265e-10
-0.097, 3.236e-10
-0.096, 3.199e-10
-0.095, 3.162e-10
-0.094, 3.134e-10
-0.093, 3.098e-10
-0.092, 3.067e-10
-0.091, 3.024e-10
-0.090, 2.987e-10
-0.089, 2.959e-10
-0.088, 2.918e-10
-0.087, 2.894e-10
-0.086, 2.850e-10
-0.085, 2.821e-10
-0.084, 2.790e-10
-0.083, 2.748e-10
-0.082, 2.727e-10
-0.081, 2.683e-10
-0.080, 2.656e-10
-0.079, 2.624e-10
-0.078, 2.577e-10
-0.077, 2.565e-10
-0.076, 2.526e-10
-0.075, 2.498e-10
-0.074, 2.469e-10
-0.073, 2.429e-10
-0.072, 2.411e-10
-0.071, 2.376e-10
-0.070, 2.348e-10
-0.069, 2.323e-10
-0.068, 2.284e-10
-0.067, 2.270e-10
-0.066, 2.239e-10
-0.065, 2.209e-10
-0.064, 2.189e-10
-0.063, 2.147e-10
-0.062, 2.127e-10
-0.061, 2.091e-10
-0.060, 2.066e-10
-0.059, 2.053e-10
-0.058, 2.018e-10
-0.057, 2.002e-10
-0.056, 1.971e-10
-0.055, 1.937e-10
-0.054, 1.920e-10
-0.053, 1.885e-10
-0.052, 1.872e-10
-0.051, 1.835e-10
-0.050, 1.813e-10
-0.049, 1.792e-10
-0.048, 1.762e-10
-0.047, 1.747e-10
-0.046, 1.710e-10
-0.045, 1.686e-10
-0.044, 1.667e-10
-0.043, 1.640e-10
-0.042, 1.626e-10
-0.041, 1.592e-10
-0.040, 1.577e-10
-0.039, 1.555e-10
-0.038, 1.528e-10
-0.037, 1.516e-10
-0.036, 1.484e-10
-0.035, 1.465e-10
-0.034, 1.442e-10
-0.033, 1.412e-10
-0.032, 1.402e-10
-0.031, 1.373e-10
-0.030, 1.350e-10
-0.029, 1.334e-10
-0.028, 1.306e-10
-0.027, 1.298e-10
-0.026, 1.264e-10
-0.025, 1.242e-10
-0.024, 1.224e-10
-0.023, 1.196e-10
-0.022, 1.187e-10
-0.021, 1.159e-10
-0.020, 1.139e-10
-0.019, 1.123e-10
-0.018, 1.094e-10
-0.017, 1.081e-10
-0.016, 1.058e-10
-0.015, 1.031e-10
-0.014, 1.021e-10
-0.013, 9.916e-11
-0.012, 9.804e-11
-0.011, 9.582e-11
-0.010, 9.359e-11
-0.009, 9.217e-11
-0.008, 8.928e-11
-0.007, 8.830e-11
-0.006, 8.601e-11
-0.005, 8.379e-11
-0.004, 8.176e-11
-0.003, 7.944e-11
-0.002, 7.880e-11
-0.001, 7.601e-11
-0.000, 7.438e-11
0.001, 7.222e-11
0.002, 6.974e-11
0.003, 6.893e-11
0.004, 6.644e-11
0.005, 6.451e-11
0.006, 6.332e-11
0.007, 6.009e-11
0.008, 5.969e-11
0.009, 5.689e-11
0.010, 5.521e-11
0.011, 5.343e-11
0.012, 5.098e-11
0.013, 5.004e-11
0.014, 4.749e-11
0.015, 4.565e-11
0.016, 4.493e-11
0.017, 4.192e-11
0.018, 4.125e-11
0.019, 3.849e-11
0.020, 3.695e-11
0.021, 3.555e-11
0.022, 3.344e-11
0.023, 3.222e-11
0.024, 2.999e-11
0.025, 2.794e-11
0.026, 2.659e-11
0.027, 2.402e-11
0.028, 2.292e-11
0.029, 2.059e-11
0.030, 1.889e-11
0.031, 1.685e-11
0.032, 1.460e-11
0.033, 1.358e-11
0.034, 1.050e-11
0.035, 8.909e-12
0.036, 7.738e-12
0.037, 5.425e-12
0.038, 5.145e-12
0.039, 1.564e-12
0.040, 1.316e-13
0.041, -1.591e-12
0.042, -4.185e-12
0.043, -4.785e-12
0.044, -7.736e-12
0.045, -9.294e-12
0.046, -1.093e-11
0.047, -1.341e-11
0.048, -1.396e-11
0.049, -1.716e-11
0.050, -1.900e-11
0.051, -2.046e-11
0.052, -2.339e-11
0.053, -2.442e-11
0.054, -2.735e-11
0.055, -2.927e-11
0.056, -3.091e-11
0.057, -3.326e-11
0.058, -3.438e-11
0.059, -3.710e-11
0.060, -3.961e-11
0.061, -4.154e-11
0.062, -4.398e-11
0.063, -4.530e-11
0.064, -4.772e-11
0.065, -4.989e-11
0.066, -5.119e-11
0.067, -5.399e-11
0.068, -5.547e-11
0.069, -5.861e-11
0.070, -6.139e-11
0.071, -6.341e-11
0.072, -6.579e-11
0.073, -6.733e-11
0.074, -7.088e-11
0.075, -7.232e-11
0.076, -7.466e-11
0.077, -7.775e-11
0.078, -7.973e-11
0.079, -8.351e-11
0.080, -8.551e-11
0.081, -8.827e-11
0.082, -9.223e-11
0.083, -9.291e-11
0.084, -9.676e-11
0.085, -9.916e-11
0.086, -1.016e-10
0.087, -1.060e-10
0.088, -1.073e-10
0.089, -1.113e-10
0.090, -1.142e-10
0.091, -1.173e-10
0.092, -1.215e-10
0.093, -1.237e-10
0.094, -1.278e-10
0.095, -1.309e-10
0.096, -1.335e-10
0.097, -1.379e-10
0.098, -1.408e-10
0.099, -1.455e-10
0.100, -1.488e-10
0.101, -1.522e-10
0.102, -1.576e-10
0.103, -1.610e-10
0.104, -1.649e-10
0.105, -1.699e-10
0.106, -1.734e-10
0.107, -1.792e-10
0.108, -1.831e-10
0.109, -1.885e-10
0.110, -1.932e-10
0.111, -1.978e-10
0.112, -2.030e-10
0.113, -2.073e-10
0.114, -2.139e-10
0.115, -2.196e-10
0.116, -2.249e-10
0.117, -2.316e-10
0.118, -2.372e-10
0.119, -2.441e-10
0.120, -2.498e-10
0.121, -2.558e-10
0.122, -2.634e-10
0.123, -2.700e-10
0.124, -2.784e-10
0.125, -2.848e-10
0.126, -2.923e-10
0.127, -3.012e-10
0.128, -3.070e-10
0.129, -3.167e-10
0.130, -3.248e-10
0.131, -3.333e-10
0.132, -3.435e-10
0.133, -3.513e-10
0.134, -3.626e-10
0.135, -3.723e-10
0.136, -3.818e-10
0.137, -3.931e-10
0.138, -4.022e-10
0.139, -4.140e-10
0.140, -4.257e-10
0.141, -4.363e-10
0.142, -4.498e-10
0.143, -4.613e-10
0.144, -4.756e-10
0.145, -4.878e-10
0.146, -5.006e-10
0.147, -5.155e-10
0.148, -5.288e-10
0.149, -5.445e-10
0.150, -5.595e-10
0.151, -5.749e-10
0.152, -5.909e-10
0.153, -6.072e-10
0.154, -6.250e-10
0.155, -6.416e-10
0.156, -6.594e-10
0.157, -6.772e-10
0.158, -6.948e-10
0.159, -7.161e-10
0.160, -7.345e-10
0.161, -7.547e-10
0.162, -7.765e-10
0.163, -7.964e-10
0.164, -8.199e-10
0.165, -8.408e-10
0.166, -8.633e-10
0.167, -8.873e-10
0.168, -9.094e-10
0.169, -9.352e-10
0.170, -9.603e-10
0.171, -9.850e-10
0.172, -1.013e-9
0.173, -1.038e-9
0.174, -1.066e-9
0.175, -1.093e-9
0.176, -1.120e-9
0.177, -1.150e-9
0.178, -1.178e-9
0.179, -1.209e-9
0.180, -1.240e-9
0.181, -1.270e-9
0.182, -1.303e-9
0.183, -1.334e-9
0.184, -1.367e-9
0.185, -1.399e-9
0.186, -1.432e-9
0.187, -1.466e-9
0.188, -1.499e-9
0.189, -1.535e-9
0.190, -1.570e-9
0.191, -1.606e-9
0.192, -1.642e-9
0.193, -1.677e-9
0.194, -1.713e-9
0.195, -1.749e-9
0.196, -1.787e-9
0.197, -1.824e-9
0.198, -1.860e-9
0.199, -1.899e-9
0.200, -1.935e-9
0.201, -1.974e-9
0.202, -2.012e-9
0.203, -2.049e-9
0.204, -2.091e-9
0.205, -2.128e-9
0.206, -2.167e-9
0.207, -2.204e-9
0.208, -2.240e-9
0.209, -2.281e-9
0.210, -2.318e-9
0.211, -2.356e-9
0.212, -2.394e-9
0.213, -2.429e-9
0.214, -2.467e-9
0.215, -2.503e-9
0.216, -2.539e-9
0.217, -2.577e-9
0.218, -2.611e-9
0.219, -2.647e-9
0.220, -2.682e-9
0.221, -2.714e-9
0.222, -2.749e-9
0.223, -2.782e-9
0.224, -2.815e-9
0.225, -2.848e-9
0.226, -2.879e-9
0.227, -2.911e-9
0.228, -2.942e-9
0.229, -2.973e-9
0.230, -3.002e-9
0.231, -3.031e-9
0.232, -3.060e-9
0.233, -3.087e-9
0.234, -3.115e-9
0.235, -3.140e-9
0.236, -3.166e-9
0.237, -3.192e-9
0.238, -3.217e-9
0.239, -3.241e-9
0.240, -3.263e-9
0.241, -3.287e-9
0.242, -3.309e-9
0.243, -3.330e-9
0.244, -3.353e-9
0.245, -3.371e-9
0.246, -3.391e-9
0.247, -3.411e-9
0.248, -3.429e-9
0.249, -3.450e-9
0.250, -3.466e-9
0.251, -3.483e-9
0.252, -3.501e-9
0.253, -3.516e-9
0.254, -3.532e-9
0.255, -3.545e-9
0.256, -3.560e-9
0.257, -3.575e-9
0.258, -3.588e-9
0.259, -3.602e-9
0.260, -3.613e-9
0.261, -3.626e-9
0.262, -3.638e-9
0.263, -3.649e-9
0.264, -3.661e-9
0.265, -3.672e-9
0.266, -3.681e-9
0.267, -3.692e-9
0.268, -3.699e-9
0.269, -3.710e-9
0.270, -3.717e-9
0.271, -3.727e-9
0.272, -3.735e-9
0.273, -3.742e-9
0.274, -3.751e-9
0.275, -3.756e-9
0.276, -3.765e-9
0.277, -3.772e-9
0.278, -3.777e-9
0.279, -3.784e-9
0.280, -3.789e-9
0.281, -3.795e-9
0.282, -3.800e-9
0.283, -3.805e-9
0.284, -3.812e-9
0.285, -3.816e-9
0.286, -3.822e-9
0.287, -3.826e-9
0.288, -3.829e-9
0.289, -3.835e-9
0.290, -3.839e-9
0.291, -3.844e-9
0.292, -3.847e-9
0.293, -3.850e-9
0.294, -3.854e-9
0.295, -3.858e-9
0.296, -3.861e-9
0.297, -3.865e-9
0.298, -3.868e-9
0.299, -3.872e-9
0.300, -3.873e-9
0.301, -3.875e-9
0.302, -3.879e-9
0.303, -3.880e-9
0.304, -3.885e-9
0.305, -3.887e-9
0.306, -3.891e-9
0.307, -3.894e-9
0.308, -3.895e-9
0.309, -3.898e-9
0.310, -3.901e-9
0.311, -3.903e-9
0.312, -3.905e-9
0.313, -3.906e-9
0.314, -3.908e-9
0.315, -3.910e-9
0.316, -3.913e-9
0.317, -3.916e-9
0.318, -3.915e-9
0.319, -3.919e-9
0.320, -3.921e-9
0.321, -3.922e-9
0.322, -3.925e-9
0.323, -3.927e-9
0.324, -3.930e-9
0.325, -3.930e-9
0.326, -3.931e-9
0.327, -3.934e-9
0.328, -3.934e-9
0.329, -3.938e-9
0.330, -3.938e-9
0.331, -3.940e-9
0.332, -3.943e-9
0.333, -3.943e-9
0.334, -3.946e-9
0.335, -3.948e-9
0.336, -3.950e-9
0.337, -3.952e-9
0.338, -3.951e-9
0.339, -3.956e-9
0.340, -3.957e-9
0.341, -3.958e-9
0.342, -3.961e-9
0.343, -3.962e-9
0.344, -3.964e-9
0.345, -3.965e-9
0.346, -3.967e-9
0.347, -3.969e-9
0.348, -3.970e-9
0.349, -3.972e-9
0.350, -3.974e-9
0.351, -3.976e-9
0.352, -3.977e-9
0.353, -3.978e-9
0.354, -3.982e-9
0.355, -3.982e-9
0.356, -3.984e-9
0.357, -3.985e-9
0.358, -3.987e-9
0.359, -3.991e-9
0.360, -3.991e-9
0.361, -3.993e-9
0.362, -3.996e-9
0.363, -3.997e-9
0.364, -4.001e-9
0.365, -4.002e-9
0.366, -4.004e-9
0.367, -4.007e-9
0.368, -4.006e-9
0.369, -4.010e-9
0.370, -4.010e-9
0.371, -4.012e-9
0.372, -4.014e-9
0.373, -4.016e-9
0.374, -4.020e-9
0.375, -4.020e-9
0.376, -4.022e-9
0.377, -4.025e-9
0.378, -4.026e-9
0.379, -4.029e-9
0.380, -4.031e-9
0.381, -4.034e-9
0.382, -4.036e-9
0.383, -4.037e-9
0.384, -4.039e-9
0.385, -4.040e-9
0.386, -4.043e-9
0.387, -4.044e-9
0.388, -4.047e-9
0.389, -4.050e-9
0.390, -4.052e-9
0.391, -4.054e-9
0.392, -4.056e-9
0.393, -4.058e-9
0.394, -4.061e-9
0.395, -4.062e-9
0.396, -4.066e-9
0.397, -4.067e-9
0.398, -4.070e-9
0.399, -4.072e-9
