Results:

Channel 1:
Segment 1:

Segment 2:

Potential/V, Current/A

0.000, 4.750e-8
-0.001, 4.762e-8
-0.002, 4.771e-8
-0.003, 4.778e-8
-0.004, 4.785e-8
-0.005, 4.792e-8
-0.006, 4.797e-8
-0.007, 4.801e-8
-0.008, 4.805e-8
-0.009, 4.810e-8
-0.010, 4.815e-8
-0.011, 4.818e-8
-0.012, 4.825e-8
-0.013, 4.827e-8
-0.014, 4.834e-8
-0.015, 4.839e-8
-0.016, 4.843e-8
-0.017, 4.845e-8
-0.018, 4.848e-8
-0.019, 4.852e-8
-0.020, 4.857e-8
-0.021, 4.858e-8
-0.022, 4.864e-8
-0.023, 4.868e-8
-0.024, 4.871e-8
-0.025, 4.875e-8
-0.026, 4.879e-8
-0.027, 4.882e-8
-0.028, 4.884e-8
-0.029, 4.886e-8
-0.030, 4.891e-8
-0.031, 4.897e-8
-0.032, 4.900e-8
-0.033, 4.901e-8
-0.034, 4.905e-8
-0.035, 4.909e-8
-0.036, 4.913e-8
-0.037, 4.913e-8
-0.038, 4.918e-8
-0.039, 4.920e-8
-0.040, 4.923e-8
-0.041, 4.926e-8
-0.042, 4.930e-8
-0.043, 4.932e-8
-0.044, 4.935e-8
-0.045, 4.936e-8
-0.046, 4.939e-8
-0.047, 4.942e-8
-0.048, 4.946e-8
-0.049, 4.948e-8
-0.050, 4.951e-8
-0.051, 4.953e-8
-0.052, 4.957e-8
-0.053, 4.958e-8
-0.054, 4.958e-8
-0.055, 4.962e-8
-0.056, 4.964e-8
-0.057, 4.968e-8
-0.058, 4.971e-8
-0.059, 4.974e-8
-0.060, 4.976e-8
-0.061, 4.980e-8
-0.062, 4.982e-8
-0.063, 4.985e-8
-0.064, 4.987e-8
-0.065, 4.989e-8
-0.066, 4.989e-8
-0.067, 4.993e-8
-0.068, 4.997e-8
-0.069, 5.000e-8
-0.070, 5.002e-8
-0.071, 5.005e-8
-0.072, 5.006e-8
-0.073, 5.007e-8
-0.074, 5.009e-8
-0.075, 5.010e-8
-0.076, 5.016e-8
-0.077, 5.018e-8
-0.078, 5.020e-8
-0.079, 5.022e-8
-0.080, 5.023e-8
-0.081, 5.024e-8
-0.082, 5.027e-8
-0.083, 5.029e-8
-0.084, 5.031e-8
-0.085, 5.035e-8
-0.086, 5.035e-8
-0.087, 5.039e-8
-0.088, 5.042e-8
-0.089, 5.043e-8
-0.090, 5.045e-8
-0.091, 5.048e-8
-0.092, 5.050e-8
-0.093, 5.051e-8
-0.094, 5.053e-8
-0.095, 5.055e-8
-0.096, 5.058e-8
-0.097, 5.060e-8
-0.098, 5.063e-8
-0.099, 5.065e-8
-0.100, 5.064e-8
-0.101, 5.066e-8
-0.102, 5.070e-8
-0.103, 5.071e-8
-0.104, 5.073e-8
-0.105, 5.075e-8
-0.106, 5.079e-8
-0.107, 5.081e-8
-0.108, 5.083e-8
-0.109, 5.083e-8
-0.110, 5.087e-8
-0.111, 5.087e-8
-0.112, 5.090e-8
-0.113, 5.091e-8
-0.114, 5.092e-8
-0.115, 5.093e-8
-0.116, 5.095e-8
-0.117, 5.098e-8
-0.118, 5.101e-8
-0.119, 5.103e-8
-0.120, 5.104e-8
-0.121, 5.108e-8
-0.122, 5.110e-8
-0.123, 5.109e-8
-0.124, 5.111e-8
-0.125, 5.112e-8
-0.126, 5.116e-8
-0.127, 5.118e-8
-0.128, 5.120e-8
-0.129, 5.122e-8
-0.130, 5.124e-8
-0.131, 5.126e-8
-0.132, 5.128e-8
-0.133, 5.129e-8
-0.134, 5.128e-8
-0.135, 5.130e-8
-0.136, 5.131e-8
-0.137, 5.134e-8
-0.138, 5.137e-8
-0.139, 5.141e-8
-0.140, 5.142e-8
-0.141, 5.143e-8
-0.142, 5.143e-8
-0.143, 5.145e-8
-0.144, 5.151e-8
-0.145, 5.151e-8
-0.146, 5.150e-8
-0.147, 5.153e-8
-0.148, 5.155e-8
-0.149, 5.156e-8
-0.150, 5.157e-8
-0.151, 5.159e-8
-0.152, 5.161e-8
-0.153, 5.164e-8
-0.154, 5.167e-8
-0.155, 5.166e-8
-0.156, 5.169e-8
-0.157, 5.170e-8
-0.158, 5.171e-8
-0.159, 5.175e-8
-0.160, 5.176e-8
-0.161, 5.179e-8
-0.162, 5.179e-8
-0.163, 5.181e-8
-0.164, 5.184e-8
-0.165, 5.185e-8
-0.166, 5.186e-8
-0.167, 5.188e-8
-0.168, 5.191e-8
-0.169, 5.194e-8
-0.170, 5.193e-8
-0.171, 5.193e-8
-0.172, 5.196e-8
-0.173, 5.199e-8
-0.174, 5.200e-8
-0.175, 5.202e-8
-0.176, 5.204e-8
-0.177, 5.206e-8
-0.178, 5.207e-8
-0.179, 5.209e-8
-0.180, 5.211e-8
-0.181, 5.212e-8
-0.182, 5.214e-8
-0.183, 5.217e-8
-0.184, 5.219e-8
-0.185, 5.220e-8
-0.186, 5.221e-8
-0.187, 5.219e-8
-0.188, 5.222e-8
-0.189, 5.226e-8
-0.190, 5.227e-8
-0.191, 5.228e-8
-0.192, 5.230e-8
-0.193, 5.234e-8
-0.194, 5.235e-8
-0.195, 5.235e-8
-0.196, 5.239e-8
-0.197, 5.239e-8
-0.198, 5.240e-8
-0.199, 5.242e-8
-0.200, 5.239e-8
-0.199, 5.228e-8
-0.198, 5.221e-8
-0.197, 5.216e-8
-0.196, 5.213e-8
-0.195, 5.209e-8
-0.194, 5.202e-8
-0.193, 5.197e-8
-0.192, 5.194e-8
-0.191, 5.190e-8
-0.190, 5.186e-8
-0.189, 5.183e-8
-0.188, 5.179e-8
-0.187, 5.174e-8
-0.186, 5.173e-8
-0.185, 5.172e-8
-0.184, 5.168e-8
-0.183, 5.163e-8
-0.182, 5.158e-8
-0.181, 5.158e-8
-0.180, 5.154e-8
-0.179, 5.151e-8
-0.178, 5.148e-8
-0.177, 5.147e-8
-0.176, 5.141e-8
-0.175, 5.135e-8
-0.174, 5.133e-8
-0.173, 5.131e-8
-0.172, 5.129e-8
-0.171, 5.124e-8
-0.170, 5.121e-8
-0.169, 5.117e-8
-0.168, 5.115e-8
-0.167, 5.112e-8
-0.166, 5.110e-8
-0.165, 5.106e-8
-0.164, 5.104e-8
-0.163, 5.102e-8
-0.162, 5.099e-8
-0.161, 5.095e-8
-0.160, 5.092e-8
-0.159, 5.088e-8
-0.158, 5.084e-8
-0.157, 5.082e-8
-0.156, 5.079e-8
-0.155, 5.075e-8
-0.154, 5.075e-8
-0.153, 5.070e-8
-0.152, 5.068e-8
-0.151, 5.065e-8
-0.150, 5.062e-8
-0.149, 5.058e-8
-0.148, 5.056e-8
-0.147, 5.052e-8
-0.146, 5.050e-8
-0.145, 5.049e-8
-0.144, 5.045e-8
-0.143, 5.042e-8
-0.142, 5.040e-8
-0.141, 5.036e-8
-0.140, 5.032e-8
-0.139, 5.030e-8
-0.138, 5.028e-8
-0.137, 5.026e-8
-0.136, 5.022e-8
-0.135, 5.020e-8
-0.134, 5.015e-8
-0.133, 5.012e-8
-0.132, 5.010e-8
-0.131, 5.005e-8
-0.130, 5.002e-8
-0.129, 4.998e-8
-0.128, 4.996e-8
-0.127, 4.995e-8
-0.126, 4.992e-8
-0.125, 4.989e-8
-0.124, 4.985e-8
-0.123, 4.984e-8
-0.122, 4.983e-8
-0.121, 4.979e-8
-0.120, 4.975e-8
-0.119, 4.973e-8
-0.118, 4.968e-8
-0.117, 4.964e-8
-0.116, 4.962e-8
-0.115, 4.958e-8
-0.114, 4.956e-8
-0.113, 4.953e-8
-0.112, 4.951e-8
-0.111, 4.948e-8
-0.110, 4.944e-8
-0.109, 4.942e-8
-0.108, 4.938e-8
-0.107, 4.934e-8
-0.106, 4.931e-8
-0.105, 4.929e-8
-0.104, 4.926e-8
-0.103, 4.922e-8
-0.102, 4.920e-8
-0.101, 4.915e-8
-0.100, 4.912e-8
-0.099, 4.911e-8
-0.098, 4.908e-8
-0.097, 4.906e-8
-0.096, 4.902e-8
-0.095, 4.898e-8
-0.094, 4.895e-8
-0.093, 4.892e-8
-0.092, 4.890e-8
-0.091, 4.887e-8
-0.090, 4.885e-8
-0.089, 4.882e-8
-0.088, 4.877e-8
-0.087, 4.874e-8
-0.086, 4.871e-8
-0.085, 4.869e-8
-0.084, 4.865e-8
-0.083, 4.859e-8
-0.082, 4.858e-8
-0.081, 4.854e-8
-0.080, 4.850e-8
-0.079, 4.848e-8
-0.078, 4.846e-8
-0.077, 4.840e-8
-0.076, 4.837e-8
-0.075, 4.835e-8
-0.074, 4.832e-8
-0.073, 4.828e-8
-0.072, 4.824e-8
-0.071, 4.821e-8
-0.070, 4.818e-8
-0.069, 4.812e-8
-0.068, 4.811e-8
-0.067, 4.808e-8
-0.066, 4.803e-8
-0.065, 4.802e-8
-0.064, 4.800e-8
-0.063, 4.797e-8
-0.062, 4.792e-8
-0.061, 4.789e-8
-0.060, 4.786e-8
-0.059, 4.782e-8
-0.058, 4.777e-8
-0.057, 4.772e-8
-0.056, 4.770e-8
-0.055, 4.768e-8
-0.054, 4.765e-8
-0.053, 4.761e-8
-0.052, 4.756e-8
-0.051, 4.754e-8
-0.050, 4.751e-8
-0.049, 4.745e-8
-0.048, 4.742e-8
-0.047, 4.738e-8
-0.046, 4.735e-8
-0.045, 4.732e-8
-0.044, 4.726e-8
-0.043, 4.723e-8
-0.042, 4.719e-8
-0.041, 4.715e-8
-0.040, 4.712e-8
-0.039, 4.708e-8
-0.038, 4.705e-8
-0.037, 4.701e-8
-0.036, 4.698e-8
-0.035, 4.693e-8
-0.034, 4.688e-8
-0.033, 4.684e-8
-0.032, 4.682e-8
-0.031, 4.675e-8
-0.030, 4.672e-8
-0.029, 4.671e-8
-0.028, 4.665e-8
-0.027, 4.662e-8
-0.026, 4.657e-8
-0.025, 4.654e-8
-0.024, 4.650e-8
-0.023, 4.645e-8
-0.022, 4.642e-8
-0.021, 4.636e-8
-0.020, 4.632e-8
-0.019, 4.628e-8
-0.018, 4.624e-8
-0.017, 4.619e-8
-0.016, 4.614e-8
-0.015, 4.611e-8
-0.014, 4.608e-8
-0.013, 4.602e-8
-0.012, 4.599e-8
-0.011, 4.594e-8
-0.010, 4.591e-8
-0.009, 4.585e-8
-0.008, 4.580e-8
-0.007, 4.577e-8
-0.006, 4.572e-8
-0.005, 4.567e-8
-0.004, 4.561e-8
-0.003, 4.558e-8
-0.002, 4.554e-8
-0.001, 4.548e-8
-0.000, 4.542e-8
0.001, 4.538e-8
0.002, 4.535e-8
0.003, 4.529e-8
0.004, 4.524e-8
0.005, 4.520e-8
0.006, 4.516e-8
0.007, 4.511e-8
0.008, 4.505e-8
0.009, 4.501e-8
0.010, 4.496e-8
0.011, 4.490e-8
0.012, 4.484e-8
0.013, 4.480e-8
0.014, 4.473e-8
0.015, 4.469e-8
0.016, 4.464e-8
0.017, 4.459e-8
0.018, 4.455e-8
0.019, 4.449e-8
0.020, 4.445e-8
0.021, 4.438e-8
0.022, 4.432e-8
0.023, 4.428e-8
0.024, 4.422e-8
0.025, 4.415e-8
0.026, 4.410e-8
0.027, 4.406e-8
0.028, 4.400e-8
0.029, 4.393e-8
0.030, 4.387e-8
0.031, 4.382e-8
0.032, 4.377e-8
0.033, 4.370e-8
0.034, 4.362e-8
0.035, 4.355e-8
0.036, 4.350e-8
0.037, 4.345e-8
0.038, 4.339e-8
0.039, 4.334e-8
0.040, 4.328e-8
0.041, 4.320e-8
0.042, 4.314e-8
0.043, 4.309e-8
0.044, 4.301e-8
0.045, 4.294e-8
0.046, 4.289e-8
0.047, 4.281e-8
0.048, 4.277e-8
0.049, 4.269e-8
0.050, 4.262e-8
0.051, 4.255e-8
0.052, 4.248e-8
0.053, 4.242e-8
0.054, 4.233e-8
0.055, 4.226e-8
0.056, 4.219e-8
0.057, 4.213e-8
0.058, 4.204e-8
0.059, 4.197e-8
0.060, 4.191e-8
0.061, 4.183e-8
0.062, 4.175e-8
0.063, 4.168e-8
0.064, 4.162e-8
0.065, 4.154e-8
0.066, 4.145e-8
0.067, 4.137e-8
0.068, 4.128e-8
0.069, 4.121e-8
0.070, 4.113e-8
0.071, 4.106e-8
0.072, 4.099e-8
0.073, 4.090e-8
0.074, 4.081e-8
0.075, 4.073e-8
0.076, 4.064e-8
0.077, 4.056e-8
0.078, 4.047e-8
0.079, 4.038e-8
0.080, 4.028e-8
0.081, 4.019e-8
0.082, 4.011e-8
0.083, 4.002e-8
0.084, 3.993e-8
0.085, 3.983e-8
0.086, 3.974e-8
0.087, 3.965e-8
0.088, 3.954e-8
0.089, 3.945e-8
0.090, 3.934e-8
0.091, 3.924e-8
0.092, 3.915e-8
0.093, 3.904e-8
0.094, 3.894e-8
0.095, 3.883e-8
0.096, 3.874e-8
0.097, 3.863e-8
0.098, 3.853e-8
0.099, 3.841e-8
0.100, 3.830e-8
0.101, 3.820e-8
0.102, 3.806e-8
0.103, 3.795e-8
0.104, 3.783e-8
0.105, 3.772e-8
0.106, 3.762e-8
0.107, 3.750e-8
0.108, 3.738e-8
0.109, 3.725e-8
0.110, 3.713e-8
0.111, 3.701e-8
0.112, 3.688e-8
0.113, 3.675e-8
0.114, 3.662e-8
0.115, 3.649e-8
0.116, 3.635e-8
0.117, 3.621e-8
0.118, 3.608e-8
0.119, 3.595e-8
0.120, 3.581e-8
0.121, 3.566e-8
0.122, 3.552e-8
0.123, 3.536e-8
0.124, 3.522e-8
0.125, 3.507e-8
0.126, 3.492e-8
0.127, 3.476e-8
0.128, 3.461e-8
0.129, 3.445e-8
0.130, 3.428e-8
0.131, 3.411e-8
0.132, 3.395e-8
0.133, 3.379e-8
0.134, 3.362e-8
0.135, 3.344e-8
0.136, 3.327e-8
0.137, 3.309e-8
0.138, 3.293e-8
0.139, 3.273e-8
0.140, 3.254e-8
0.141, 3.236e-8
0.142, 3.218e-8
0.143, 3.198e-8
0.144, 3.178e-8
0.145, 3.158e-8
0.146, 3.137e-8
0.147, 3.117e-8
0.148, 3.097e-8
0.149, 3.076e-8
0.150, 3.054e-8
0.151, 3.033e-8
0.152, 3.012e-8
0.153, 2.989e-8
0.154, 2.967e-8
0.155, 2.944e-8
0.156, 2.922e-8
0.157, 2.899e-8
0.158, 2.875e-8
0.159, 2.851e-8
0.160, 2.827e-8
0.161, 2.802e-8
0.162, 2.777e-8
0.163, 2.752e-8
0.164, 2.727e-8
0.165, 2.701e-8
0.166, 2.674e-8
0.167, 2.647e-8
0.168, 2.621e-8
0.169, 2.593e-8
0.170, 2.565e-8
0.171, 2.537e-8
0.172, 2.509e-8
0.173, 2.481e-8
0.174, 2.452e-8
0.175, 2.423e-8
0.176, 2.393e-8
0.177, 2.364e-8
0.178, 2.334e-8
0.179, 2.303e-8
0.180, 2.272e-8
0.181, 2.242e-8
0.182, 2.210e-8
0.183, 2.179e-8
0.184, 2.147e-8
0.185, 2.115e-8
0.186, 2.083e-8
0.187, 2.050e-8
0.188, 2.017e-8
0.189, 1.984e-8
0.190, 1.950e-8
0.191, 1.917e-8
0.192, 1.882e-8
0.193, 1.848e-8
0.194, 1.815e-8
0.195, 1.781e-8
0.196, 1.746e-8
0.197, 1.712e-8
0.198, 1.677e-8
0.199, 1.641e-8
0.200, 1.606e-8
0.201, 1.571e-8
0.202, 1.536e-8
0.203, 1.501e-8
0.204, 1.465e-8
0.205, 1.429e-8
0.206, 1.393e-8
0.207, 1.358e-8
0.208, 1.324e-8
0.209, 1.288e-8
0.210, 1.252e-8
0.211, 1.217e-8
0.212, 1.182e-8
0.213, 1.147e-8
0.214, 1.112e-8
0.215, 1.077e-8
0.216, 1.043e-8
0.217, 1.008e-8
0.218, 9.738e-9
0.219, 9.398e-9
0.220, 9.059e-9
0.221, 8.724e-9
0.222, 8.391e-9
0.223, 8.067e-9
0.224, 7.739e-9
0.225, 7.412e-9
0.226, 7.091e-9
0.227, 6.771e-9
0.228, 6.460e-9
0.229, 6.151e-9
0.230, 5.845e-9
0.231, 5.543e-9
0.232, 5.246e-9
0.233, 4.956e-9
0.234, 4.664e-9
0.235, 4.379e-9
0.236, 4.101e-9
0.237, 3.831e-9
0.238, 3.560e-9
0.239, 3.294e-9
0.240, 3.034e-9
0.241, 2.780e-9
0.242, 2.532e-9
0.243, 2.288e-9
0.244, 2.046e-9
0.245, 1.814e-9
0.246, 1.585e-9
0.247, 1.363e-9
0.248, 1.148e-9
0.249, 9.311e-10
0.250, 7.245e-10
0.251, 5.217e-10
0.252, 3.240e-10
0.253, 1.345e-10
0.254, -5.377e-11
0.255, -2.326e-10
0.256, -4.099e-10
0.257, -5.822e-10
0.258, -7.443e-10
0.259, -9.065e-10
0.260, -1.062e-9
0.261, -1.211e-9
0.262, -1.358e-9
0.263, -1.497e-9
0.264, -1.632e-9
0.265, -1.762e-9
0.266, -1.885e-9
0.267, -2.009e-9
0.268, -2.128e-9
0.269, -2.239e-9
0.270, -2.349e-9
0.271, -2.453e-9
0.272, -2.554e-9
0.273, -2.651e-9
0.274, -2.743e-9
0.275, -2.833e-9
0.276, -2.917e-9
0.277, -2.998e-9
0.278, -3.074e-9
0.279, -3.150e-9
0.280, -3.219e-9
0.281, -3.286e-9
0.282, -3.349e-9
0.283, -3.411e-9
0.284, -3.471e-9
0.285, -3.525e-9
0.286, -3.579e-9
0.287, -3.629e-9
0.288, -3.676e-9
0.289, -3.723e-9
0.290, -3.763e-9
0.291, -3.802e-9
0.292, -3.841e-9
0.293, -3.874e-9
0.294, -3.908e-9
0.295, -3.939e-9
0.296, -3.965e-9
0.297, -3.996e-9
0.298, -4.020e-9
0.299, -4.045e-9
0.300, -4.066e-9
0.301, -4.083e-9
0.302, -4.103e-9
0.303, -4.120e-9
0.304, -4.136e-9
0.305, -4.151e-9
0.306, -4.162e-9
0.307, -4.174e-9
0.308, -4.184e-9
0.309, -4.193e-9
0.310, -4.201e-9
0.311, -4.208e-9
0.312, -4.214e-9
0.313, -4.216e-9
0.314, -4.222e-9
0.315, -4.226e-9
0.316, -4.226e-9
0.317, -4.228e-9
0.318, -4.226e-9
0.319, -4.226e-9
0.320, -4.224e-9
0.321, -4.224e-9
0.322, -4.221e-9
0.323, -4.216e-9
0.324, -4.213e-9
0.325, -4.207e-9
0.326, -4.203e-9
0.327, -4.199e-9
0.328, -4.191e-9
0.329, -4.186e-9
0.330, -4.178e-9
0.331, -4.170e-9
0.332, -4.164e-9
0.333, -4.154e-9
0.334, -4.147e-9
0.335, -4.138e-9
0.336, -4.127e-9
0.337, -4.119e-9
0.338, -4.109e-9
0.339, -4.101e-9
0.340, -4.090e-9
0.341, -4.079e-9
0.342, -4.071e-9
0.343, -4.060e-9
0.344, -4.048e-9
0.345, -4.037e-9
0.346, -4.024e-9
0.347, -4.013e-9
0.348, -4.001e-9
0.349, -3.992e-9
0.350, -3.980e-9
0.351, -3.968e-9
0.352, -3.956e-9
0.353, -3.945e-9
0.354, -3.932e-9
0.355, -3.918e-9
0.356, -3.906e-9
0.357, -3.895e-9
0.358, -3.881e-9
0.359, -3.871e-9
0.360, -3.857e-9
0.361, -3.845e-9
0.362, -3.832e-9
0.363, -3.820e-9
0.364, -3.809e-9
0.365, -3.797e-9
0.366, -3.784e-9
0.367, -3.771e-9
0.368, -3.757e-9
0.369, -3.747e-9
0.370, -3.735e-9
0.371, -3.721e-9
0.372, -3.709e-9
0.373, -3.697e-9
0.374, -3.685e-9
0.375, -3.673e-9
0.376, -3.660e-9
0.377, -3.649e-9
0.378, -3.636e-9
0.379, -3.625e-9
0.380, -3.613e-9
0.381, -3.600e-9
0.382, -3.589e-9
0.383, -3.576e-9
0.384, -3.562e-9
0.385, -3.551e-9
0.386, -3.541e-9
0.387, -3.529e-9
0.388, -3.518e-9
0.389, -3.507e-9
0.390, -3.495e-9
0.391, -3.484e-9
0.392, -3.471e-9
0.393, -3.461e-9
0.394, -3.449e-9
0.395, -3.438e-9
0.396, -3.428e-9
0.397, -3.416e-9
0.398, -3.404e-9
0.399, -3.396e-9
