Results:

Channel 1:
Segment 1:

Segment 2:
Ep = 0.311V
ip = -2.872e-8A
Ah = -3.561e-8C

Potential/V, Current/A

0.000, 4.589e-8
-0.001, 4.600e-8
-0.002, 4.607e-8
-0.003, 4.614e-8
-0.004, 4.621e-8
-0.005, 4.625e-8
-0.006, 4.630e-8
-0.007, 4.634e-8
-0.008, 4.637e-8
-0.009, 4.642e-8
-0.010, 4.645e-8
-0.011, 4.649e-8
-0.012, 4.655e-8
-0.013, 4.658e-8
-0.014, 4.662e-8
-0.015, 4.664e-8
-0.016, 4.666e-8
-0.017, 4.671e-8
-0.018, 4.674e-8
-0.019, 4.676e-8
-0.020, 4.681e-8
-0.021, 4.685e-8
-0.022, 4.688e-8
-0.023, 4.692e-8
-0.024, 4.693e-8
-0.025, 4.695e-8
-0.026, 4.697e-8
-0.027, 4.700e-8
-0.028, 4.703e-8
-0.029, 4.706e-8
-0.030, 4.709e-8
-0.031, 4.714e-8
-0.032, 4.716e-8
-0.033, 4.718e-8
-0.034, 4.719e-8
-0.035, 4.722e-8
-0.036, 4.725e-8
-0.037, 4.726e-8
-0.038, 4.728e-8
-0.039, 4.730e-8
-0.040, 4.734e-8
-0.041, 4.738e-8
-0.042, 4.740e-8
-0.043, 4.741e-8
-0.044, 4.743e-8
-0.045, 4.745e-8
-0.046, 4.746e-8
-0.047, 4.749e-8
-0.048, 4.753e-8
-0.049, 4.756e-8
-0.050, 4.759e-8
-0.051, 4.762e-8
-0.052, 4.763e-8
-0.053, 4.764e-8
-0.054, 4.765e-8
-0.055, 4.768e-8
-0.056, 4.770e-8
-0.057, 4.772e-8
-0.058, 4.774e-8
-0.059, 4.777e-8
-0.060, 4.779e-8
-0.061, 4.781e-8
-0.062, 4.783e-8
-0.063, 4.783e-8
-0.064, 4.785e-8
-0.065, 4.789e-8
-0.066, 4.791e-8
-0.067, 4.793e-8
-0.068, 4.797e-8
-0.069, 4.799e-8
-0.070, 4.799e-8
-0.071, 4.801e-8
-0.072, 4.802e-8
-0.073, 4.804e-8
-0.074, 4.804e-8
-0.075, 4.806e-8
-0.076, 4.809e-8
-0.077, 4.810e-8
-0.078, 4.813e-8
-0.079, 4.816e-8
-0.080, 4.815e-8
-0.081, 4.819e-8
-0.082, 4.820e-8
-0.083, 4.822e-8
-0.084, 4.825e-8
-0.085, 4.828e-8
-0.086, 4.830e-8
-0.087, 4.831e-8
-0.088, 4.833e-8
-0.089, 4.835e-8
-0.090, 4.835e-8
-0.091, 4.836e-8
-0.092, 4.838e-8
-0.093, 4.841e-8
-0.094, 4.842e-8
-0.095, 4.844e-8
-0.096, 4.846e-8
-0.097, 4.848e-8
-0.098, 4.849e-8
-0.099, 4.849e-8
-0.100, 4.851e-8
-0.101, 4.853e-8
-0.102, 4.856e-8
-0.103, 4.858e-8
-0.104, 4.859e-8
-0.105, 4.859e-8
-0.106, 4.861e-8
-0.107, 4.863e-8
-0.108, 4.864e-8
-0.109, 4.868e-8
-0.110, 4.869e-8
-0.111, 4.870e-8
-0.112, 4.873e-8
-0.113, 4.875e-8
-0.114, 4.875e-8
-0.115, 4.876e-8
-0.116, 4.878e-8
-0.117, 4.882e-8
-0.118, 4.885e-8
-0.119, 4.885e-8
-0.120, 4.888e-8
-0.121, 4.890e-8
-0.122, 4.890e-8
-0.123, 4.890e-8
-0.124, 4.893e-8
-0.125, 4.896e-8
-0.126, 4.895e-8
-0.127, 4.898e-8
-0.128, 4.902e-8
-0.129, 4.905e-8
-0.130, 4.903e-8
-0.131, 4.905e-8
-0.132, 4.906e-8
-0.133, 4.905e-8
-0.134, 4.905e-8
-0.135, 4.908e-8
-0.136, 4.912e-8
-0.137, 4.912e-8
-0.138, 4.915e-8
-0.139, 4.917e-8
-0.140, 4.919e-8
-0.141, 4.921e-8
-0.142, 4.921e-8
-0.143, 4.922e-8
-0.144, 4.923e-8
-0.145, 4.927e-8
-0.146, 4.928e-8
-0.147, 4.931e-8
-0.148, 4.933e-8
-0.149, 4.931e-8
-0.150, 4.931e-8
-0.151, 4.934e-8
-0.152, 4.935e-8
-0.153, 4.937e-8
-0.154, 4.939e-8
-0.155, 4.943e-8
-0.156, 4.945e-8
-0.157, 4.946e-8
-0.158, 4.947e-8
-0.159, 4.948e-8
-0.160, 4.950e-8
-0.161, 4.951e-8
-0.162, 4.953e-8
-0.163, 4.955e-8
-0.164, 4.956e-8
-0.165, 4.959e-8
-0.166, 4.959e-8
-0.167, 4.960e-8
-0.168, 4.962e-8
-0.169, 4.965e-8
-0.170, 4.967e-8
-0.171, 4.966e-8
-0.172, 4.970e-8
-0.173, 4.972e-8
-0.174, 4.975e-8
-0.175, 4.977e-8
-0.176, 4.977e-8
-0.177, 4.980e-8
-0.178, 4.979e-8
-0.179, 4.980e-8
-0.180, 4.983e-8
-0.181, 4.985e-8
-0.182, 4.988e-8
-0.183, 4.989e-8
-0.184, 4.991e-8
-0.185, 4.992e-8
-0.186, 4.992e-8
-0.187, 4.996e-8
-0.188, 4.997e-8
-0.189, 4.997e-8
-0.190, 4.998e-8
-0.191, 5.001e-8
-0.192, 5.003e-8
-0.193, 5.005e-8
-0.194, 5.007e-8
-0.195, 5.009e-8
-0.196, 5.011e-8
-0.197, 5.012e-8
-0.198, 5.014e-8
-0.199, 5.016e-8
-0.200, 5.013e-8
-0.199, 5.002e-8
-0.198, 4.998e-8
-0.197, 4.992e-8
-0.196, 4.988e-8
-0.195, 4.983e-8
-0.194, 4.980e-8
-0.193, 4.977e-8
-0.192, 4.975e-8
-0.191, 4.970e-8
-0.190, 4.969e-8
-0.189, 4.966e-8
-0.188, 4.962e-8
-0.187, 4.959e-8
-0.186, 4.955e-8
-0.185, 4.953e-8
-0.184, 4.951e-8
-0.183, 4.948e-8
-0.182, 4.945e-8
-0.181, 4.944e-8
-0.180, 4.941e-8
-0.179, 4.938e-8
-0.178, 4.934e-8
-0.177, 4.932e-8
-0.176, 4.928e-8
-0.175, 4.927e-8
-0.174, 4.924e-8
-0.173, 4.923e-8
-0.172, 4.921e-8
-0.171, 4.919e-8
-0.170, 4.916e-8
-0.169, 4.914e-8
-0.168, 4.911e-8
-0.167, 4.910e-8
-0.166, 4.906e-8
-0.165, 4.903e-8
-0.164, 4.902e-8
-0.163, 4.901e-8
-0.162, 4.898e-8
-0.161, 4.898e-8
-0.160, 4.894e-8
-0.159, 4.890e-8
-0.158, 4.888e-8
-0.157, 4.887e-8
-0.156, 4.885e-8
-0.155, 4.884e-8
-0.154, 4.883e-8
-0.153, 4.879e-8
-0.152, 4.878e-8
-0.151, 4.874e-8
-0.150, 4.871e-8
-0.149, 4.868e-8
-0.148, 4.866e-8
-0.147, 4.866e-8
-0.146, 4.863e-8
-0.145, 4.860e-8
-0.144, 4.858e-8
-0.143, 4.854e-8
-0.142, 4.851e-8
-0.141, 4.849e-8
-0.140, 4.848e-8
-0.139, 4.848e-8
-0.138, 4.846e-8
-0.137, 4.843e-8
-0.136, 4.841e-8
-0.135, 4.837e-8
-0.134, 4.834e-8
-0.133, 4.833e-8
-0.132, 4.829e-8
-0.131, 4.829e-8
-0.130, 4.824e-8
-0.129, 4.822e-8
-0.128, 4.821e-8
-0.127, 4.820e-8
-0.126, 4.817e-8
-0.125, 4.815e-8
-0.124, 4.810e-8
-0.123, 4.810e-8
-0.122, 4.812e-8
-0.121, 4.812e-8
-0.120, 4.812e-8
-0.119, 4.812e-8
-0.118, 4.812e-8
-0.117, 4.808e-8
-0.116, 4.805e-8
-0.115, 4.806e-8
-0.114, 4.804e-8
-0.113, 4.801e-8
-0.112, 4.800e-8
-0.111, 4.794e-8
-0.110, 4.796e-8
-0.109, 4.793e-8
-0.108, 4.790e-8
-0.107, 4.787e-8
-0.106, 4.783e-8
-0.105, 4.783e-8
-0.104, 4.781e-8
-0.103, 4.779e-8
-0.102, 4.778e-8
-0.101, 4.775e-8
-0.100, 4.773e-8
-0.099, 4.770e-8
-0.098, 4.768e-8
-0.097, 4.766e-8
-0.096, 4.765e-8
-0.095, 4.760e-8
-0.094, 4.758e-8
-0.093, 4.758e-8
-0.092, 4.755e-8
-0.091, 4.751e-8
-0.090, 4.749e-8
-0.089, 4.745e-8
-0.088, 4.743e-8
-0.087, 4.742e-8
-0.086, 4.742e-8
-0.085, 4.738e-8
-0.084, 4.737e-8
-0.083, 4.735e-8
-0.082, 4.730e-8
-0.081, 4.728e-8
-0.080, 4.727e-8
-0.079, 4.725e-8
-0.078, 4.722e-8
-0.077, 4.722e-8
-0.076, 4.717e-8
-0.075, 4.714e-8
-0.074, 4.714e-8
-0.073, 4.711e-8
-0.072, 4.708e-8
-0.071, 4.705e-8
-0.070, 4.703e-8
-0.069, 4.699e-8
-0.068, 4.697e-8
-0.067, 4.695e-8
-0.066, 4.692e-8
-0.065, 4.689e-8
-0.064, 4.687e-8
-0.063, 4.685e-8
-0.062, 4.681e-8
-0.061, 4.678e-8
-0.060, 4.675e-8
-0.059, 4.673e-8
-0.058, 4.670e-8
-0.057, 4.669e-8
-0.056, 4.666e-8
-0.055, 4.662e-8
-0.054, 4.657e-8
-0.053, 4.654e-8
-0.052, 4.652e-8
-0.051, 4.650e-8
-0.050, 4.649e-8
-0.049, 4.646e-8
-0.048, 4.643e-8
-0.047, 4.641e-8
-0.046, 4.637e-8
-0.045, 4.634e-8
-0.044, 4.630e-8
-0.043, 4.626e-8
-0.042, 4.625e-8
-0.041, 4.623e-8
-0.040, 4.621e-8
-0.039, 4.618e-8
-0.038, 4.612e-8
-0.037, 4.610e-8
-0.036, 4.606e-8
-0.035, 4.603e-8
-0.034, 4.601e-8
-0.033, 4.597e-8
-0.032, 4.595e-8
-0.031, 4.592e-8
-0.030, 4.589e-8
-0.029, 4.585e-8
-0.028, 4.581e-8
-0.027, 4.577e-8
-0.026, 4.574e-8
-0.025, 4.570e-8
-0.024, 4.569e-8
-0.023, 4.565e-8
-0.022, 4.562e-8
-0.021, 4.560e-8
-0.020, 4.556e-8
-0.019, 4.551e-8
-0.018, 4.548e-8
-0.017, 4.546e-8
-0.016, 4.540e-8
-0.015, 4.537e-8
-0.014, 4.534e-8
-0.013, 4.531e-8
-0.012, 4.529e-8
-0.011, 4.524e-8
-0.010, 4.519e-8
-0.009, 4.513e-8
-0.008, 4.509e-8
-0.007, 4.507e-8
-0.006, 4.504e-8
-0.005, 4.500e-8
-0.004, 4.495e-8
-0.003, 4.493e-8
-0.002, 4.490e-8
-0.001, 4.486e-8
-0.000, 4.483e-8
0.001, 4.479e-8
0.002, 4.475e-8
0.003, 4.470e-8
0.004, 4.466e-8
0.005, 4.464e-8
0.006, 4.459e-8
0.007, 4.453e-8
0.008, 4.449e-8
0.009, 4.444e-8
0.010, 4.442e-8
0.011, 4.438e-8
0.012, 4.434e-8
0.013, 4.430e-8
0.014, 4.425e-8
0.015, 4.422e-8
0.016, 4.417e-8
0.017, 4.410e-8
0.018, 4.406e-8
0.019, 4.402e-8
0.020, 4.398e-8
0.021, 4.392e-8
0.022, 4.389e-8
0.023, 4.385e-8
0.024, 4.381e-8
0.025, 4.375e-8
0.026, 4.369e-8
0.027, 4.365e-8
0.028, 4.361e-8
0.029, 4.355e-8
0.030, 4.350e-8
0.031, 4.347e-8
0.032, 4.341e-8
0.033, 4.336e-8
0.034, 4.331e-8
0.035, 4.326e-8
0.036, 4.320e-8
0.037, 4.316e-8
0.038, 4.312e-8
0.039, 4.306e-8
0.040, 4.301e-8
0.041, 4.294e-8
0.042, 4.289e-8
0.043, 4.284e-8
0.044, 4.278e-8
0.045, 4.273e-8
0.046, 4.268e-8
0.047, 4.261e-8
0.048, 4.256e-8
0.049, 4.250e-8
0.050, 4.244e-8
0.051, 4.238e-8
0.052, 4.233e-8
0.053, 4.227e-8
0.054, 4.218e-8
0.055, 4.213e-8
0.056, 4.210e-8
0.057, 4.202e-8
0.058, 4.195e-8
0.059, 4.187e-8
0.060, 4.180e-8
0.061, 4.176e-8
0.062, 4.170e-8
0.063, 4.163e-8
0.064, 4.156e-8
0.065, 4.149e-8
0.066, 4.142e-8
0.067, 4.136e-8
0.068, 4.129e-8
0.069, 4.120e-8
0.070, 4.113e-8
0.071, 4.107e-8
0.072, 4.099e-8
0.073, 4.092e-8
0.074, 4.085e-8
0.075, 4.079e-8
0.076, 4.071e-8
0.077, 4.062e-8
0.078, 4.054e-8
0.079, 4.045e-8
0.080, 4.038e-8
0.081, 4.029e-8
0.082, 4.020e-8
0.083, 4.013e-8
0.084, 4.006e-8
0.085, 3.999e-8
0.086, 3.990e-8
0.087, 3.981e-8
0.088, 3.971e-8
0.089, 3.963e-8
0.090, 3.954e-8
0.091, 3.943e-8
0.092, 3.936e-8
0.093, 3.928e-8
0.094, 3.917e-8
0.095, 3.907e-8
0.096, 3.898e-8
0.097, 3.888e-8
0.098, 3.880e-8
0.099, 3.869e-8
0.100, 3.858e-8
0.101, 3.849e-8
0.102, 3.839e-8
0.103, 3.828e-8
0.104, 3.817e-8
0.105, 3.807e-8
0.106, 3.795e-8
0.107, 3.784e-8
0.108, 3.772e-8
0.109, 3.760e-8
0.110, 3.750e-8
0.111, 3.737e-8
0.112, 3.725e-8
0.113, 3.712e-8
0.114, 3.700e-8
0.115, 3.689e-8
0.116, 3.676e-8
0.117, 3.663e-8
0.118, 3.650e-8
0.119, 3.638e-8
0.120, 3.623e-8
0.121, 3.610e-8
0.122, 3.597e-8
0.123, 3.582e-8
0.124, 3.568e-8
0.125, 3.554e-8
0.126, 3.539e-8
0.127, 3.525e-8
0.128, 3.510e-8
0.129, 3.495e-8
0.130, 3.479e-8
0.131, 3.463e-8
0.132, 3.447e-8
0.133, 3.430e-8
0.134, 3.413e-8
0.135, 3.398e-8
0.136, 3.380e-8
0.137, 3.364e-8
0.138, 3.346e-8
0.139, 3.329e-8
0.140, 3.310e-8
0.141, 3.292e-8
0.142, 3.273e-8
0.143, 3.254e-8
0.144, 3.233e-8
0.145, 3.214e-8
0.146, 3.194e-8
0.147, 3.174e-8
0.148, 3.154e-8
0.149, 3.133e-8
0.150, 3.113e-8
0.151, 3.092e-8
0.152, 3.070e-8
0.153, 3.047e-8
0.154, 3.025e-8
0.155, 3.002e-8
0.156, 2.978e-8
0.157, 2.954e-8
0.158, 2.930e-8
0.159, 2.907e-8
0.160, 2.883e-8
0.161, 2.858e-8
0.162, 2.833e-8
0.163, 2.807e-8
0.164, 2.780e-8
0.165, 2.754e-8
0.166, 2.727e-8
0.167, 2.700e-8
0.168, 2.672e-8
0.169, 2.644e-8
0.170, 2.616e-8
0.171, 2.588e-8
0.172, 2.559e-8
0.173, 2.530e-8
0.174, 2.500e-8
0.175, 2.471e-8
0.176, 2.441e-8
0.177, 2.410e-8
0.178, 2.379e-8
0.179, 2.347e-8
0.180, 2.315e-8
0.181, 2.283e-8
0.182, 2.251e-8
0.183, 2.218e-8
0.184, 2.185e-8
0.185, 2.152e-8
0.186, 2.119e-8
0.187, 2.084e-8
0.188, 2.049e-8
0.189, 2.015e-8
0.190, 1.980e-8
0.191, 1.945e-8
0.192, 1.910e-8
0.193, 1.875e-8
0.194, 1.839e-8
0.195, 1.803e-8
0.196, 1.768e-8
0.197, 1.732e-8
0.198, 1.695e-8
0.199, 1.658e-8
0.200, 1.622e-8
0.201, 1.584e-8
0.202, 1.549e-8
0.203, 1.512e-8
0.204, 1.474e-8
0.205, 1.437e-8
0.206, 1.399e-8
0.207, 1.362e-8
0.208, 1.325e-8
0.209, 1.288e-8
0.210, 1.253e-8
0.211, 1.216e-8
0.212, 1.179e-8
0.213, 1.143e-8
0.214, 1.106e-8
0.215, 1.069e-8
0.216, 1.033e-8
0.217, 9.980e-9
0.218, 9.628e-9
0.219, 9.276e-9
0.220, 8.924e-9
0.221, 8.576e-9
0.222, 8.232e-9
0.223, 7.894e-9
0.224, 7.554e-9
0.225, 7.220e-9
0.226, 6.891e-9
0.227, 6.562e-9
0.228, 6.235e-9
0.229, 5.919e-9
0.230, 5.608e-9
0.231, 5.302e-9
0.232, 4.999e-9
0.233, 4.696e-9
0.234, 4.403e-9
0.235, 4.112e-9
0.236, 3.831e-9
0.237, 3.554e-9
0.238, 3.280e-9
0.239, 3.013e-9
0.240, 2.753e-9
0.241, 2.496e-9
0.242, 2.249e-9
0.243, 2.004e-9
0.244, 1.763e-9
0.245, 1.535e-9
0.246, 1.307e-9
0.247, 1.083e-9
0.248, 8.687e-10
0.249, 6.574e-10
0.250, 4.557e-10
0.251, 2.569e-10
0.252, 6.428e-11
0.253, -1.197e-10
0.254, -3.032e-10
0.255, -4.760e-10
0.256, -6.480e-10
0.257, -8.129e-10
0.258, -9.682e-10
0.259, -1.123e-9
0.260, -1.270e-9
0.261, -1.411e-9
0.262, -1.550e-9
0.263, -1.682e-9
0.264, -1.810e-9
0.265, -1.932e-9
0.266, -2.049e-9
0.267, -2.162e-9
0.268, -2.270e-9
0.269, -2.372e-9
0.270, -2.473e-9
0.271, -2.568e-9
0.272, -2.658e-9
0.273, -2.746e-9
0.274, -2.830e-9
0.275, -2.909e-9
0.276, -2.984e-9
0.277, -3.054e-9
0.278, -3.122e-9
0.279, -3.188e-9
0.280, -3.245e-9
0.281, -3.306e-9
0.282, -3.360e-9
0.283, -3.411e-9
0.284, -3.462e-9
0.285, -3.506e-9
0.286, -3.551e-9
0.287, -3.592e-9
0.288, -3.629e-9
0.289, -3.666e-9
0.290, -3.698e-9
0.291, -3.730e-9
0.292, -3.759e-9
0.293, -3.784e-9
0.294, -3.810e-9
0.295, -3.830e-9
0.296, -3.851e-9
0.297, -3.873e-9
0.298, -3.888e-9
0.299, -3.907e-9
0.300, -3.921e-9
0.301, -3.931e-9
0.302, -3.942e-9
0.303, -3.952e-9
0.304, -3.961e-9
0.305, -3.968e-9
0.306, -3.974e-9
0.307, -3.979e-9
0.308, -3.984e-9
0.309, -3.986e-9
0.310, -3.987e-9
0.311, -3.989e-9
0.312, -3.988e-9
0.313, -3.987e-9
0.314, -3.986e-9
0.315, -3.981e-9
0.316, -3.979e-9
0.317, -3.973e-9
0.318, -3.969e-9
0.319, -3.965e-9
0.320, -3.956e-9
0.321, -3.950e-9
0.322, -3.943e-9
0.323, -3.934e-9
0.324, -3.928e-9
0.325, -3.919e-9
0.326, -3.912e-9
0.327, -3.903e-9
0.328, -3.890e-9
0.329, -3.880e-9
0.330, -3.869e-9
0.331, -3.859e-9
0.332, -3.849e-9
0.333, -3.838e-9
0.334, -3.827e-9
0.335, -3.815e-9
0.336, -3.802e-9
0.337, -3.789e-9
0.338, -3.777e-9
0.339, -3.765e-9
0.340, -3.750e-9
0.341, -3.738e-9
0.342, -3.725e-9
0.343, -3.712e-9
0.344, -3.701e-9
0.345, -3.686e-9
0.346, -3.673e-9
0.347, -3.662e-9
0.348, -3.646e-9
0.349, -3.633e-9
0.350, -3.619e-9
0.351, -3.607e-9
0.352, -3.593e-9
0.353, -3.579e-9
0.354, -3.567e-9
0.355, -3.552e-9
0.356, -3.539e-9
0.357, -3.525e-9
0.358, -3.511e-9
0.359, -3.498e-9
0.360, -3.484e-9
0.361, -3.473e-9
0.362, -3.458e-9
0.363, -3.444e-9
0.364, -3.432e-9
0.365, -3.417e-9
0.366, -3.406e-9
0.367, -3.392e-9
0.368, -3.378e-9
0.369, -3.365e-9
0.370, -3.350e-9
0.371, -3.339e-9
0.372, -3.326e-9
0.373, -3.310e-9
0.374, -3.299e-9
0.375, -3.286e-9
0.376, -3.273e-9
0.377, -3.262e-9
0.378, -3.249e-9
0.379, -3.237e-9
0.380, -3.224e-9
0.381, -3.212e-9
0.382, -3.201e-9
0.383, -3.188e-9
0.384, -3.178e-9
0.385, -3.165e-9
0.386, -3.151e-9
0.387, -3.140e-9
0.388, -3.130e-9
0.389, -3.118e-9
0.390, -3.106e-9
0.391, -3.095e-9
0.392, -3.082e-9
0.393, -3.069e-9
0.394, -3.059e-9
0.395, -3.048e-9
0.396, -3.038e-9
0.397, -3.026e-9
0.398, -3.015e-9
0.399, -3.006e-9
0.400, -2.993e-9
0.401, -2.985e-9
0.402, -2.974e-9
0.403, -2.965e-9
0.404, -2.956e-9
0.405, -2.945e-9
0.406, -2.935e-9
0.407, -2.925e-9
0.408, -2.913e-9
0.409, -2.905e-9
0.410, -2.895e-9
0.411, -2.885e-9
0.412, -2.879e-9
0.413, -2.870e-9
0.414, -2.860e-9
0.415, -2.851e-9
0.416, -2.843e-9
0.417, -2.837e-9
0.418, -2.830e-9
0.419, -2.823e-9
0.420, -2.815e-9
0.421, -2.808e-9
0.422, -2.799e-9
0.423, -2.789e-9
0.424, -2.780e-9
0.425, -2.771e-9
0.426, -2.763e-9
0.427, -2.753e-9
0.428, -2.743e-9
0.429, -2.734e-9
0.430, -2.725e-9
0.431, -2.718e-9
0.432, -2.711e-9
0.433, -2.705e-9
0.434, -2.697e-9
0.435, -2.691e-9
0.436, -2.688e-9
0.437, -2.678e-9
0.438, -2.664e-9
0.439, -2.658e-9
0.440, -2.651e-9
0.441, -2.641e-9
0.442, -2.628e-9
0.443, -2.615e-9
0.444, -2.604e-9
0.445, -2.594e-9
0.446, -2.588e-9
0.447, -2.581e-9
0.448, -2.570e-9
0.449, -2.562e-9
0.450, -2.552e-9
0.451, -2.544e-9
0.452, -2.535e-9
0.453, -2.526e-9
0.454, -2.522e-9
0.455, -2.520e-9
0.456, -2.516e-9
0.457, -2.509e-9
0.458, -2.501e-9
0.459, -2.496e-9
0.460, -2.490e-9
0.461, -2.486e-9
0.462, -2.483e-9
0.463, -2.481e-9
0.464, -2.475e-9
0.465, -2.468e-9
0.466, -2.461e-9
0.467, -2.453e-9
0.468, -2.447e-9
0.469, -2.440e-9
0.470, -2.433e-9
0.471, -2.429e-9
0.472, -2.424e-9
0.473, -2.422e-9
0.474, -2.419e-9
0.475, -2.410e-9
0.476, -2.403e-9
0.477, -2.395e-9
0.478, -2.386e-9
0.479, -2.382e-9
0.480, -2.376e-9
0.481, -2.372e-9
0.482, -2.366e-9
0.483, -2.361e-9
0.484, -2.358e-9
0.485, -2.353e-9
0.486, -2.349e-9
0.487, -2.345e-9
0.488, -2.342e-9
0.489, -2.341e-9
0.490, -2.338e-9
0.491, -2.337e-9
0.492, -2.332e-9
0.493, -2.326e-9
0.494, -2.320e-9
0.495, -2.313e-9
0.496, -2.309e-9
0.497, -2.306e-9
0.498, -2.303e-9
0.499, -2.300e-9
