Results:

Channel 1:
Segment 1:

Segment 2:

Potential/V, Current/A

0.200, 9.939e-9
0.201, 9.939e-9
0.202, 9.939e-9
0.203, 9.939e-9
0.204, 9.939e-9
0.205, 9.939e-9
0.206, 9.939e-9
0.207, 9.939e-9
0.208, 9.939e-9
0.209, 9.939e-9
0.210, 9.939e-9
0.211, 9.939e-9
0.212, 9.939e-9
0.213, 9.939e-9
0.214, 9.939e-9
0.215, 9.939e-9
0.216, 9.939e-9
0.217, 9.939e-9
0.218, 9.939e-9
0.219, 9.939e-9
0.220, 9.939e-9
0.221, 9.939e-9
0.222, 9.939e-9
0.223, 9.939e-9
0.224, 9.939e-9
0.225, 9.939e-9
0.226, 9.939e-9
0.227, 9.868e-9
0.228, 9.457e-9
0.229, 9.033e-9
0.230, 8.638e-9
0.231, 8.265e-9
0.232, 7.910e-9
0.233, 7.575e-9
0.234, 7.256e-9
0.235, 6.948e-9
0.236, 6.652e-9
0.237, 6.368e-9
0.238, 6.091e-9
0.239, 5.825e-9
0.240, 5.567e-9
0.241, 5.317e-9
0.242, 5.076e-9
0.243, 4.840e-9
0.244, 4.611e-9
0.245, 4.391e-9
0.246, 4.177e-9
0.247, 3.970e-9
0.248, 3.768e-9
0.249, 3.572e-9
0.250, 3.384e-9
0.251, 3.202e-9
0.252, 3.026e-9
0.253, 2.854e-9
0.254, 2.687e-9
0.255, 2.528e-9
0.256, 2.373e-9
0.257, 2.223e-9
0.258, 2.079e-9
0.259, 1.939e-9
0.260, 1.804e-9
0.261, 1.676e-9
0.262, 1.550e-9
0.263, 1.430e-9
0.264, 1.315e-9
0.265, 1.202e-9
0.266, 1.096e-9
0.267, 9.930e-10
0.268, 8.932e-10
0.269, 7.982e-10
0.270, 7.062e-10
0.271, 6.205e-10
0.272, 5.367e-10
0.273, 4.562e-10
0.274, 3.802e-10
0.275, 3.058e-10
0.276, 2.363e-10
0.277, 1.692e-10
0.278, 1.055e-10
0.279, 4.462e-11
0.280, -1.459e-11
0.281, -6.956e-11
0.282, -1.234e-10
0.283, -1.749e-10
0.284, -2.234e-10
0.285, -2.705e-10
0.286, -3.157e-10
0.287, -3.572e-10
0.288, -3.962e-10
0.289, -4.341e-10
0.290, -4.701e-10
0.291, -5.033e-10
0.292, -5.358e-10
0.293, -5.655e-10
0.294, -5.949e-10
0.295, -6.220e-10
0.296, -6.471e-10
0.297, -6.717e-10
0.298, -6.935e-10
0.299, -7.148e-10
0.300, -7.349e-10
0.301, -7.529e-10
0.302, -7.719e-10
0.303, -7.889e-10
0.304, -8.041e-10
0.305, -8.189e-10
0.306, -8.314e-10
0.307, -8.448e-10
0.308, -8.571e-10
0.309, -8.672e-10
0.310, -8.778e-10
0.311, -8.862e-10
0.312, -8.946e-10
0.313, -9.032e-10
0.314, -9.101e-10
0.315, -9.168e-10
0.316, -9.225e-10
0.317, -9.271e-10
0.318, -9.323e-10
0.319, -9.363e-10
0.320, -9.399e-10
0.321, -9.435e-10
0.322, -9.470e-10
0.323, -9.496e-10
0.324, -9.516e-10
0.325, -9.533e-10
0.326, -9.546e-10
0.327, -9.558e-10
0.328, -9.567e-10
0.329, -9.575e-10
0.330, -9.578e-10
0.331, -9.572e-10
0.332, -9.575e-10
0.333, -9.568e-10
0.334, -9.559e-10
0.335, -9.556e-10
0.336, -9.538e-10
0.337, -9.527e-10
0.338, -9.512e-10
0.339, -9.493e-10
0.340, -9.481e-10
0.341, -9.457e-10
0.342, -9.444e-10
0.343, -9.422e-10
0.344, -9.398e-10
0.345, -9.378e-10
0.346, -9.346e-10
0.347, -9.325e-10
0.348, -9.303e-10
0.349, -9.269e-10
0.350, -9.251e-10
0.351, -9.216e-10
0.352, -9.192e-10
0.353, -9.168e-10
0.354, -9.135e-10
0.355, -9.105e-10
0.356, -9.074e-10
0.357, -9.044e-10
0.358, -9.014e-10
0.359, -8.986e-10
0.360, -8.958e-10
0.361, -8.923e-10
0.362, -8.895e-10
0.363, -8.866e-10
0.364, -8.836e-10
0.365, -8.806e-10
0.366, -8.773e-10
0.367, -8.747e-10
0.368, -8.712e-10
0.369, -8.681e-10
0.370, -8.654e-10
0.371, -8.621e-10
0.372, -8.596e-10
0.373, -8.560e-10
0.374, -8.529e-10
0.375, -8.505e-10
0.376, -8.471e-10
0.377, -8.448e-10
0.378, -8.419e-10
0.379, -8.393e-10
0.380, -8.367e-10
0.381, -8.333e-10
0.382, -8.312e-10
0.383, -8.284e-10
0.384, -8.251e-10
0.385, -8.228e-10
0.386, -8.200e-10
0.387, -8.176e-10
0.388, -8.153e-10
0.389, -8.127e-10
0.390, -8.112e-10
0.391, -8.083e-10
0.392, -8.061e-10
0.393, -8.038e-10
0.394, -8.011e-10
0.395, -7.994e-10
0.396, -7.970e-10
0.397, -7.945e-10
0.398, -7.925e-10
0.399, -7.903e-10
0.400, -7.881e-10
0.401, -7.859e-10
0.402, -7.842e-10
0.403, -7.823e-10
0.404, -7.801e-10
0.405, -7.784e-10
0.406, -7.765e-10
0.407, -7.752e-10
0.408, -7.732e-10
0.409, -7.715e-10
0.410, -7.706e-10
0.411, -7.686e-10
0.412, -7.671e-10
0.413, -7.648e-10
0.414, -7.634e-10
0.415, -7.621e-10
0.416, -7.601e-10
0.417, -7.594e-10
0.418, -7.578e-10
0.419, -7.561e-10
0.420, -7.555e-10
0.421, -7.535e-10
0.422, -7.525e-10
0.423, -7.511e-10
0.424, -7.492e-10
0.425, -7.488e-10
0.426, -7.477e-10
0.427, -7.470e-10
0.428, -7.458e-10
0.429, -7.442e-10
0.430, -7.438e-10
0.431, -7.424e-10
0.432, -7.415e-10
0.433, -7.408e-10
0.434, -7.399e-10
0.435, -7.394e-10
0.436, -7.384e-10
0.437, -7.376e-10
0.438, -7.370e-10
0.439, -7.361e-10
0.440, -7.356e-10
0.441, -7.346e-10
0.442, -7.343e-10
0.443, -7.335e-10
0.444, -7.328e-10
0.445, -7.324e-10
0.446, -7.319e-10
0.447, -7.318e-10
0.448, -7.312e-10
0.449, -7.306e-10
0.450, -7.303e-10
0.451, -7.293e-10
0.452, -7.294e-10
0.453, -7.289e-10
0.454, -7.289e-10
0.455, -7.290e-10
0.456, -7.282e-10
0.457, -7.284e-10
0.458, -7.279e-10
0.459, -7.277e-10
0.460, -7.280e-10
0.461, -7.276e-10
0.462, -7.281e-10
0.463, -7.282e-10
0.464, -7.277e-10
0.465, -7.281e-10
0.466, -7.277e-10
0.467, -7.282e-10
0.468, -7.286e-10
0.469, -7.283e-10
0.470, -7.289e-10
0.471, -7.283e-10
0.472, -7.287e-10
0.473, -7.290e-10
0.474, -7.291e-10
0.475, -7.299e-10
0.476, -7.302e-10
0.477, -7.302e-10
0.478, -7.305e-10
0.479, -7.306e-10
0.480, -7.311e-10
0.481, -7.315e-10
0.482, -7.320e-10
0.483, -7.325e-10
0.484, -7.329e-10
0.485, -7.334e-10
0.486, -7.338e-10
0.487, -7.348e-10
0.488, -7.352e-10
0.489, -7.357e-10
0.490, -7.363e-10
0.491, -7.366e-10
0.492, -7.376e-10
0.493, -7.381e-10
0.494, -7.387e-10
0.495, -7.398e-10
0.496, -7.400e-10
0.497, -7.411e-10
0.498, -7.415e-10
0.499, -7.423e-10
0.500, -7.434e-10
0.501, -7.435e-10
0.502, -7.448e-10
0.503, -7.459e-10
0.504, -7.467e-10
0.505, -7.481e-10
0.506, -7.483e-10
0.507, -7.497e-10
0.508, -7.508e-10
0.509, -7.514e-10
0.510, -7.530e-10
0.511, -7.534e-10
0.512, -7.545e-10
0.513, -7.556e-10
0.514, -7.566e-10
0.515, -7.578e-10
0.516, -7.589e-10
0.517, -7.601e-10
0.518, -7.613e-10
0.519, -7.621e-10
0.520, -7.634e-10
0.521, -7.643e-10
0.522, -7.657e-10
0.523, -7.674e-10
0.524, -7.686e-10
0.525, -7.695e-10
0.526, -7.702e-10
0.527, -7.719e-10
0.528, -7.727e-10
0.529, -7.742e-10
0.530, -7.759e-10
0.531, -7.769e-10
0.532, -7.788e-10
0.533, -7.800e-10
0.534, -7.810e-10
0.535, -7.827e-10
0.536, -7.835e-10
0.537, -7.854e-10
0.538, -7.866e-10
0.539, -7.879e-10
0.540, -7.897e-10
0.541, -7.906e-10
0.542, -7.928e-10
0.543, -7.943e-10
0.544, -7.952e-10
0.545, -7.970e-10
0.546, -7.981e-10
0.547, -8.002e-10
0.548, -8.022e-10
0.549, -8.035e-10
0.550, -8.056e-10
0.551, -8.068e-10
0.552, -8.084e-10
0.553, -8.102e-10
0.554, -8.115e-10
0.555, -8.138e-10
0.556, -8.153e-10
0.557, -8.170e-10
0.558, -8.186e-10
0.559, -8.202e-10
0.560, -8.221e-10
0.561, -8.236e-10
0.562, -8.255e-10
0.563, -8.275e-10
0.564, -8.294e-10
0.565, -8.313e-10
0.566, -8.331e-10
0.567, -8.352e-10
0.568, -8.369e-10
0.569, -8.389e-10
0.570, -8.412e-10
0.571, -8.427e-10
0.572, -8.448e-10
0.573, -8.463e-10
0.574, -8.485e-10
0.575, -8.509e-10
0.576, -8.527e-10
0.577, -8.553e-10
0.578, -8.569e-10
0.579, -8.586e-10
0.580, -8.609e-10
0.581, -8.623e-10
0.582, -8.649e-10
0.583, -8.670e-10
0.584, -8.690e-10
0.585, -8.718e-10
0.586, -8.736e-10
0.587, -8.758e-10
0.588, -8.782e-10
0.589, -8.801e-10
0.590, -8.829e-10
0.591, -8.848e-10
0.592, -8.873e-10
0.593, -8.894e-10
0.594, -8.916e-10
0.595, -8.940e-10
0.596, -8.962e-10
0.597, -8.986e-10
0.598, -9.010e-10
0.599, -9.033e-10
0.600, -8.774e-10
0.599, -7.941e-10
0.598, -7.359e-10
0.597, -6.950e-10
0.596, -6.639e-10
0.595, -6.390e-10
0.594, -6.172e-10
0.593, -5.984e-10
0.592, -5.808e-10
0.591, -5.643e-10
0.590, -5.495e-10
0.589, -5.351e-10
0.588, -5.220e-10
0.587, -5.091e-10
0.586, -4.966e-10
0.585, -4.854e-10
0.584, -4.742e-10
0.583, -4.635e-10
0.582, -4.535e-10
0.581, -4.437e-10
0.580, -4.343e-10
0.579, -4.250e-10
0.578, -4.165e-10
0.577, -4.079e-10
0.576, -3.998e-10
0.575, -3.923e-10
0.574, -3.842e-10
0.573, -3.769e-10
0.572, -3.694e-10
0.571, -3.626e-10
0.570, -3.557e-10
0.569, -3.487e-10
0.568, -3.428e-10
0.567, -3.363e-10
0.566, -3.306e-10
0.565, -3.249e-10
0.564, -3.186e-10
0.563, -3.135e-10
0.562, -3.077e-10
0.561, -3.025e-10
0.560, -2.975e-10
0.559, -2.918e-10
0.558, -2.874e-10
0.557, -2.822e-10
0.556, -2.775e-10
0.555, -2.731e-10
0.554, -2.680e-10
0.553, -2.641e-10
0.552, -2.597e-10
0.551, -2.549e-10
0.550, -2.514e-10
0.549, -2.468e-10
0.548, -2.431e-10
0.547, -2.393e-10
0.546, -2.352e-10
0.545, -2.318e-10
0.544, -2.278e-10
0.543, -2.241e-10
0.542, -2.205e-10
0.541, -2.170e-10
0.540, -2.137e-10
0.539, -2.101e-10
0.538, -2.070e-10
0.537, -2.036e-10
0.536, -2.002e-10
0.535, -1.972e-10
0.534, -1.940e-10
0.533, -1.909e-10
0.532, -1.874e-10
0.531, -1.850e-10
0.530, -1.823e-10
0.529, -1.793e-10
0.528, -1.769e-10
0.527, -1.734e-10
0.526, -1.709e-10
0.525, -1.682e-10
0.524, -1.652e-10
0.523, -1.632e-10
0.522, -1.603e-10
0.521, -1.576e-10
0.520, -1.554e-10
0.519, -1.524e-10
0.518, -1.504e-10
0.517, -1.476e-10
0.516, -1.451e-10
0.515, -1.431e-10
0.514, -1.401e-10
0.513, -1.383e-10
0.512, -1.357e-10
0.511, -1.334e-10
0.510, -1.316e-10
0.509, -1.290e-10
0.508, -1.270e-10
0.507, -1.248e-10
0.506, -1.223e-10
0.505, -1.204e-10
0.504, -1.179e-10
0.503, -1.160e-10
0.502, -1.141e-10
0.501, -1.122e-10
0.500, -1.103e-10
0.499, -1.080e-10
0.498, -1.060e-10
0.497, -1.036e-10
0.496, -1.018e-10
0.495, -1.001e-10
0.494, -9.807e-11
0.493, -9.642e-11
0.492, -9.410e-11
0.491, -9.235e-11
0.490, -9.064e-11
0.489, -8.839e-11
0.488, -8.691e-11
0.487, -8.470e-11
0.486, -8.328e-11
0.485, -8.157e-11
0.484, -7.919e-11
0.483, -7.798e-11
0.482, -7.578e-11
0.481, -7.410e-11
0.480, -7.262e-11
0.479, -7.016e-11
0.478, -6.888e-11
0.477, -6.691e-11
0.476, -6.522e-11
0.475, -6.394e-11
0.474, -6.189e-11
0.473, -6.046e-11
0.472, -5.855e-11
0.471, -5.701e-11
0.470, -5.578e-11
0.469, -5.347e-11
0.468, -5.199e-11
0.467, -5.024e-11
0.466, -4.837e-11
0.465, -4.691e-11
0.464, -4.505e-11
0.463, -4.350e-11
0.462, -4.173e-11
0.461, -4.024e-11
0.460, -3.880e-11
0.459, -3.701e-11
0.458, -3.537e-11
0.457, -3.356e-11
0.456, -3.219e-11
0.455, -3.039e-11
0.454, -2.886e-11
0.453, -2.763e-11
0.452, -2.577e-11
0.451, -2.444e-11
0.450, -2.272e-11
0.449, -2.067e-11
0.448, -1.924e-11
0.447, -1.726e-11
0.446, -1.604e-11
0.445, -1.457e-11
0.444, -1.260e-11
0.443, -1.158e-11
0.442, -9.354e-12
0.441, -7.959e-12
0.440, -6.407e-12
0.439, -4.152e-12
0.438, -2.857e-12
0.437, -8.278e-13
0.436, 7.758e-13
0.435, 1.896e-12
0.434, 3.960e-12
0.433, 5.357e-12
0.432, 7.004e-12
0.431, 8.885e-12
0.430, 1.058e-11
0.429, 1.280e-11
0.428, 1.432e-11
0.427, 1.600e-11
0.426, 1.784e-11
0.425, 1.923e-11
0.424, 2.123e-11
0.423, 2.324e-11
0.422, 2.512e-11
0.421, 2.718e-11
0.420, 2.897e-11
0.419, 3.123e-11
0.418, 3.297e-11
0.417, 3.515e-11
0.416, 3.676e-11
0.415, 3.884e-11
0.414, 4.083e-11
0.413, 4.262e-11
0.412, 4.512e-11
0.411, 4.722e-11
0.410, 4.959e-11
0.409, 5.239e-11
0.408, 5.384e-11
0.407, 5.650e-11
0.406, 5.826e-11
0.405, 6.041e-11
0.404, 6.317e-11
0.403, 6.519e-11
0.402, 6.820e-11
0.401, 7.063e-11
0.400, 7.316e-11
0.399, 7.629e-11
0.398, 7.815e-11
0.397, 8.107e-11
0.396, 8.381e-11
0.395, 8.627e-11
0.394, 8.965e-11
0.393, 9.226e-11
0.392, 9.548e-11
0.391, 9.846e-11
0.390, 1.013e-10
0.389, 1.050e-10
0.388, 1.082e-10
0.387, 1.117e-10
0.386, 1.151e-10
0.385, 1.186e-10
0.384, 1.223e-10
0.383, 1.260e-10
0.382, 1.300e-10
0.381, 1.341e-10
0.380, 1.383e-10
0.379, 1.423e-10
0.378, 1.462e-10
0.377, 1.508e-10
0.376, 1.554e-10
0.375, 1.601e-10
0.374, 1.649e-10
0.373, 1.695e-10
0.372, 1.752e-10
0.371, 1.801e-10
0.370, 1.854e-10
0.369, 1.914e-10
0.368, 1.968e-10
0.367, 2.033e-10
0.366, 2.090e-10
0.365, 2.152e-10
0.364, 2.221e-10
0.363, 2.282e-10
0.362, 2.360e-10
0.361, 2.428e-10
0.360, 2.502e-10
0.359, 2.582e-10
0.358, 2.655e-10
0.357, 2.740e-10
0.356, 2.822e-10
0.355, 2.908e-10
0.354, 3.003e-10
0.353, 3.090e-10
0.352, 3.190e-10
0.351, 3.289e-10
0.350, 3.391e-10
0.349, 3.500e-10
0.348, 3.608e-10
0.347, 3.722e-10
0.346, 3.840e-10
0.345, 3.961e-10
0.344, 4.090e-10
0.343, 4.220e-10
0.342, 4.356e-10
0.341, 4.493e-10
0.340, 4.637e-10
0.339, 4.787e-10
0.338, 4.938e-10
0.337, 5.101e-10
0.336, 5.265e-10
0.335, 5.438e-10
0.334, 5.615e-10
0.333, 5.799e-10
0.332, 5.992e-10
0.331, 6.187e-10
0.330, 6.392e-10
0.329, 6.603e-10
0.328, 6.818e-10
0.327, 7.050e-10
0.326, 7.278e-10
0.325, 7.524e-10
0.324, 7.777e-10
0.323, 8.033e-10
0.322, 8.310e-10
0.321, 8.585e-10
0.320, 8.874e-10
0.319, 9.175e-10
0.318, 9.473e-10
0.317, 9.798e-10
0.316, 1.013e-9
0.315, 1.047e-9
0.314, 1.083e-9
0.313, 1.119e-9
0.312, 1.158e-9
0.311, 1.197e-9
0.310, 1.237e-9
0.309, 1.280e-9
0.308, 1.323e-9
0.307, 1.368e-9
0.306, 1.415e-9
0.305, 1.463e-9
0.304, 1.513e-9
0.303, 1.564e-9
0.302, 1.617e-9
0.301, 1.673e-9
0.300, 1.729e-9
0.299, 1.788e-9
0.298, 1.848e-9
0.297, 1.910e-9
0.296, 1.974e-9
0.295, 2.042e-9
0.294, 2.111e-9
0.293, 2.182e-9
0.292, 2.255e-9
0.291, 2.331e-9
0.290, 2.410e-9
0.289, 2.490e-9
0.288, 2.573e-9
0.287, 2.660e-9
0.286, 2.747e-9
0.285, 2.839e-9
0.284, 2.933e-9
0.283, 3.030e-9
0.282, 3.130e-9
0.281, 3.232e-9
0.280, 3.338e-9
0.279, 3.448e-9
0.278, 3.559e-9
0.277, 3.676e-9
0.276, 3.793e-9
0.275, 3.915e-9
0.274, 4.041e-9
0.273, 4.169e-9
0.272, 4.302e-9
0.271, 4.436e-9
0.270, 4.575e-9
0.269, 4.721e-9
0.268, 4.867e-9
0.267, 5.016e-9
0.266, 5.170e-9
0.265, 5.329e-9
0.264, 5.493e-9
0.263, 5.658e-9
0.262, 5.829e-9
0.261, 6.005e-9
0.260, 6.183e-9
0.259, 6.366e-9
0.258, 6.552e-9
0.257, 6.743e-9
0.256, 6.936e-9
0.255, 7.137e-9
0.254, 7.339e-9
0.253, 7.546e-9
0.252, 7.758e-9
0.251, 7.973e-9
0.250, 8.192e-9
0.249, 8.416e-9
0.248, 8.643e-9
0.247, 8.874e-9
0.246, 9.109e-9
0.245, 9.349e-9
0.244, 9.593e-9
0.243, 9.839e-9
0.242, 9.939e-9
0.241, 9.939e-9
0.240, 9.939e-9
0.239, 9.939e-9
0.238, 9.939e-9
0.237, 9.939e-9
0.236, 9.939e-9
0.235, 9.939e-9
0.234, 9.939e-9
0.233, 9.939e-9
0.232, 9.939e-9
0.231, 9.939e-9
0.230, 9.939e-9
0.229, 9.939e-9
0.228, 9.939e-9
0.227, 9.939e-9
0.226, 9.939e-9
0.225, 9.939e-9
0.224, 9.939e-9
0.223, 9.939e-9
0.222, 9.939e-9
0.221, 9.939e-9
0.220, 9.939e-9
0.219, 9.939e-9
0.218, 9.939e-9
0.217, 9.939e-9
0.216, 9.939e-9
0.215, 9.939e-9
0.214, 9.939e-9
0.213, 9.939e-9
0.212, 9.939e-9
0.211, 9.939e-9
0.210, 9.939e-9
0.209, 9.939e-9
0.208, 9.939e-9
0.207, 9.939e-9
0.206, 9.939e-9
0.205, 9.939e-9
0.204, 9.939e-9
0.203, 9.939e-9
0.202, 9.939e-9
0.201, 9.939e-9
