Results:

Channel 1:
Segment 1:

Segment 2:

Potential/V, Current/A

0.000, 1.581e-9
0.001, 1.542e-9
0.002, 1.497e-9
0.003, 1.453e-9
0.004, 1.411e-9
0.005, 1.372e-9
0.006, 1.334e-9
0.007, 1.297e-9
0.008, 1.262e-9
0.009, 1.228e-9
0.010, 1.194e-9
0.011, 1.162e-9
0.012, 1.130e-9
0.013, 1.100e-9
0.014, 1.069e-9
0.015, 1.039e-9
0.016, 1.010e-9
0.017, 9.809e-10
0.018, 9.522e-10
0.019, 9.247e-10
0.020, 8.974e-10
0.021, 8.699e-10
0.022, 8.434e-10
0.023, 8.177e-10
0.024, 7.921e-10
0.025, 7.661e-10
0.026, 7.415e-10
0.027, 7.169e-10
0.028, 6.921e-10
0.029, 6.681e-10
0.030, 6.441e-10
0.031, 6.208e-10
0.032, 5.978e-10
0.033, 5.749e-10
0.034, 5.523e-10
0.035, 5.299e-10
0.036, 5.084e-10
0.037, 4.865e-10
0.038, 4.648e-10
0.039, 4.440e-10
0.040, 4.229e-10
0.041, 4.022e-10
0.042, 3.816e-10
0.043, 3.611e-10
0.044, 3.413e-10
0.045, 3.216e-10
0.046, 3.019e-10
0.047, 2.828e-10
0.048, 2.643e-10
0.049, 2.452e-10
0.050, 2.264e-10
0.051, 2.082e-10
0.052, 1.897e-10
0.053, 1.712e-10
0.054, 1.535e-10
0.055, 1.357e-10
0.056, 1.184e-10
0.057, 1.012e-10
0.058, 8.413e-11
0.059, 6.700e-11
0.060, 5.009e-11
0.061, 3.393e-11
0.062, 1.752e-11
0.063, 1.348e-12
0.064, -1.495e-11
0.065, -3.102e-11
0.066, -4.631e-11
0.067, -6.231e-11
0.068, -7.809e-11
0.069, -9.315e-11
0.070, -1.082e-10
0.071, -1.232e-10
0.072, -1.378e-10
0.073, -1.524e-10
0.074, -1.670e-10
0.075, -1.815e-10
0.076, -1.957e-10
0.077, -2.098e-10
0.078, -2.244e-10
0.079, -2.381e-10
0.080, -2.516e-10
0.081, -2.654e-10
0.082, -2.794e-10
0.083, -2.927e-10
0.084, -3.059e-10
0.085, -3.195e-10
0.086, -3.325e-10
0.087, -3.454e-10
0.088, -3.581e-10
0.089, -3.711e-10
0.090, -3.845e-10
0.091, -3.972e-10
0.092, -4.096e-10
0.093, -4.218e-10
0.094, -4.344e-10
0.095, -4.471e-10
0.096, -4.591e-10
0.097, -4.717e-10
0.098, -4.836e-10
0.099, -4.955e-10
0.100, -5.081e-10
0.101, -5.200e-10
0.102, -5.321e-10
0.103, -5.447e-10
0.104, -5.565e-10
0.105, -5.682e-10
0.106, -5.799e-10
0.107, -5.921e-10
0.108, -6.042e-10
0.109, -6.156e-10
0.110, -6.276e-10
0.111, -6.392e-10
0.112, -6.510e-10
0.113, -6.629e-10
0.114, -6.745e-10
0.115, -6.868e-10
0.116, -6.987e-10
0.117, -7.101e-10
0.118, -7.217e-10
0.119, -7.336e-10
0.120, -7.456e-10
0.121, -7.578e-10
0.122, -7.699e-10
0.123, -7.822e-10
0.124, -7.942e-10
0.125, -8.061e-10
0.126, -8.181e-10
0.127, -8.305e-10
0.128, -8.428e-10
0.129, -8.556e-10
0.130, -8.684e-10
0.131, -8.809e-10
0.132, -8.937e-10
0.133, -9.067e-10
0.134, -9.199e-10
0.135, -9.332e-10
0.136, -9.461e-10
0.137, -9.601e-10
0.138, -9.737e-10
0.139, -9.871e-10
0.140, -1.001e-9
0.141, -1.015e-9
0.142, -1.030e-9
0.143, -1.044e-9
0.144, -1.060e-9
0.145, -1.075e-9
0.146, -1.090e-9
0.147, -1.105e-9
0.148, -1.121e-9
0.149, -1.136e-9
0.150, -1.153e-9
0.151, -1.170e-9
0.152, -1.187e-9
0.153, -1.204e-9
0.154, -1.221e-9
0.155, -1.239e-9
0.156, -1.257e-9
0.157, -1.275e-9
0.158, -1.293e-9
0.159, -1.312e-9
0.160, -1.332e-9
0.161, -1.351e-9
0.162, -1.372e-9
0.163, -1.393e-9
0.164, -1.413e-9
0.165, -1.435e-9
0.166, -1.456e-9
0.167, -1.478e-9
0.168, -1.501e-9
0.169, -1.524e-9
0.170, -1.547e-9
0.171, -1.571e-9
0.172, -1.595e-9
0.173, -1.620e-9
0.174, -1.645e-9
0.175, -1.672e-9
0.176, -1.696e-9
0.177, -1.723e-9
0.178, -1.750e-9
0.179, -1.776e-9
0.180, -1.804e-9
0.181, -1.832e-9
0.182, -1.861e-9
0.183, -1.890e-9
0.184, -1.920e-9
0.185, -1.950e-9
0.186, -1.979e-9
0.187, -2.009e-9
0.188, -2.041e-9
0.189, -2.072e-9
0.190, -2.104e-9
0.191, -2.136e-9
0.192, -2.168e-9
0.193, -2.202e-9
0.194, -2.234e-9
0.195, -2.268e-9
0.196, -2.301e-9
0.197, -2.334e-9
0.198, -2.368e-9
0.199, -2.401e-9
0.200, -2.436e-9
0.201, -2.470e-9
0.202, -2.504e-9
0.203, -2.539e-9
0.204, -2.573e-9
0.205, -2.608e-9
0.206, -2.644e-9
0.207, -2.678e-9
0.208, -2.711e-9
0.209, -2.746e-9
0.210, -2.779e-9
0.211, -2.812e-9
0.212, -2.846e-9
0.213, -2.880e-9
0.214, -2.914e-9
0.215, -2.948e-9
0.216, -2.980e-9
0.217, -3.012e-9
0.218, -3.044e-9
0.219, -3.076e-9
0.220, -3.106e-9
0.221, -3.135e-9
0.222, -3.166e-9
0.223, -3.194e-9
0.224, -3.223e-9
0.225, -3.254e-9
0.226, -3.281e-9
0.227, -3.309e-9
0.228, -3.337e-9
0.229, -3.362e-9
0.230, -3.388e-9
0.231, -3.415e-9
0.232, -3.438e-9
0.233, -3.460e-9
0.234, -3.483e-9
0.235, -3.506e-9
0.236, -3.528e-9
0.237, -3.549e-9
0.238, -3.570e-9
0.239, -3.588e-9
0.240, -3.609e-9
0.241, -3.630e-9
0.242, -3.647e-9
0.243, -3.663e-9
0.244, -3.681e-9
0.245, -3.698e-9
0.246, -3.712e-9
0.247, -3.726e-9
0.248, -3.741e-9
0.249, -3.756e-9
0.250, -3.768e-9
0.251, -3.779e-9
0.252, -3.792e-9
0.253, -3.805e-9
0.254, -3.816e-9
0.255, -3.827e-9
0.256, -3.838e-9
0.257, -3.849e-9
0.258, -3.858e-9
0.259, -3.866e-9
0.260, -3.873e-9
0.261, -3.879e-9
0.262, -3.889e-9
0.263, -3.896e-9
0.264, -3.899e-9
0.265, -3.909e-9
0.266, -3.919e-9
0.267, -3.925e-9
0.268, -3.930e-9
0.269, -3.935e-9
0.270, -3.941e-9
0.271, -3.944e-9
0.272, -3.949e-9
0.273, -3.952e-9
0.274, -3.954e-9
0.275, -3.959e-9
0.276, -3.965e-9
0.277, -3.966e-9
0.278, -3.970e-9
0.279, -3.974e-9
0.280, -3.977e-9
0.281, -3.979e-9
0.282, -3.981e-9
0.283, -3.984e-9
0.284, -3.987e-9
0.285, -3.991e-9
0.286, -3.992e-9
0.287, -3.992e-9
0.288, -3.995e-9
0.289, -3.999e-9
0.290, -3.997e-9
0.291, -3.998e-9
0.292, -4.001e-9
0.293, -4.001e-9
0.294, -4.002e-9
0.295, -4.004e-9
0.296, -4.005e-9
0.297, -4.007e-9
0.298, -4.009e-9
0.299, -4.006e-9
0.300, -4.007e-9
0.301, -4.010e-9
0.302, -4.011e-9
0.303, -4.010e-9
0.304, -4.010e-9
0.305, -4.011e-9
0.306, -4.008e-9
0.307, -4.007e-9
0.308, -4.008e-9
0.309, -4.008e-9
0.310, -4.010e-9
0.311, -4.011e-9
0.312, -4.010e-9
0.313, -4.013e-9
0.314, -4.014e-9
0.315, -4.014e-9
0.316, -4.013e-9
0.317, -4.011e-9
0.318, -4.009e-9
0.319, -4.010e-9
0.320, -4.011e-9
0.321, -4.007e-9
0.322, -4.009e-9
0.323, -4.013e-9
0.324, -4.010e-9
0.325, -4.008e-9
0.326, -4.010e-9
0.327, -4.011e-9
0.328, -4.009e-9
0.329, -4.009e-9
0.330, -4.007e-9
0.331, -4.004e-9
0.332, -4.007e-9
0.333, -4.005e-9
0.334, -4.001e-9
0.335, -4.004e-9
0.336, -4.007e-9
0.337, -4.004e-9
0.338, -4.004e-9
0.339, -4.005e-9
0.340, -4.003e-9
0.341, -4.001e-9
0.342, -4.002e-9
0.343, -3.998e-9
0.344, -3.997e-9
0.345, -4.000e-9
0.346, -3.998e-9
0.347, -3.994e-9
0.348, -3.997e-9
0.349, -3.999e-9
0.350, -3.998e-9
0.351, -3.995e-9
0.352, -3.994e-9
0.353, -3.992e-9
0.354, -3.991e-9
0.355, -3.989e-9
0.356, -3.987e-9
0.357, -3.989e-9
0.358, -3.989e-9
0.359, -3.986e-9
0.360, -3.987e-9
0.361, -3.988e-9
0.362, -3.986e-9
0.363, -3.986e-9
0.364, -3.986e-9
0.365, -3.982e-9
0.366, -3.980e-9
0.367, -3.982e-9
0.368, -3.979e-9
0.369, -3.975e-9
0.370, -3.977e-9
0.371, -3.977e-9
0.372, -3.976e-9
0.373, -3.975e-9
0.374, -3.974e-9
0.375, -3.974e-9
0.376, -3.974e-9
0.377, -3.972e-9
0.378, -3.970e-9
0.379, -3.972e-9
0.380, -3.971e-9
0.381, -3.966e-9
0.382, -3.966e-9
0.383, -3.967e-9
0.384, -3.963e-9
0.385, -3.963e-9
0.386, -3.965e-9
0.387, -3.963e-9
0.388, -3.962e-9
0.389, -3.963e-9
0.390, -3.960e-9
0.391, -3.959e-9
0.392, -3.960e-9
0.393, -3.959e-9
0.394, -3.956e-9
0.395, -3.956e-9
0.396, -3.956e-9
0.397, -3.955e-9
0.398, -3.957e-9
0.399, -3.956e-9
0.400, -3.938e-9
0.399, -3.876e-9
0.398, -3.814e-9
0.397, -3.756e-9
0.396, -3.706e-9
0.395, -3.662e-9
0.394, -3.617e-9
0.393, -3.574e-9
0.392, -3.533e-9
0.391, -3.496e-9
0.390, -3.459e-9
0.389, -3.421e-9
0.388, -3.383e-9
0.387, -3.349e-9
0.386, -3.317e-9
0.385, -3.282e-9
0.384, -3.249e-9
0.383, -3.220e-9
0.382, -3.188e-9
0.381, -3.156e-9
0.380, -3.127e-9
0.379, -3.097e-9
0.378, -3.067e-9
0.377, -3.038e-9
0.376, -3.010e-9
0.375, -2.981e-9
0.374, -2.954e-9
0.373, -2.929e-9
0.372, -2.902e-9
0.371, -2.874e-9
0.370, -2.848e-9
0.369, -2.823e-9
0.368, -2.798e-9
0.367, -2.772e-9
0.366, -2.747e-9
0.365, -2.723e-9
0.364, -2.700e-9
0.363, -2.676e-9
0.362, -2.653e-9
0.361, -2.632e-9
0.360, -2.610e-9
0.359, -2.586e-9
0.358, -2.563e-9
0.357, -2.541e-9
0.356, -2.519e-9
0.355, -2.497e-9
0.354, -2.476e-9
0.353, -2.453e-9
0.352, -2.433e-9
0.351, -2.413e-9
0.350, -2.394e-9
0.349, -2.374e-9
0.348, -2.355e-9
0.347, -2.337e-9
0.346, -2.319e-9
0.345, -2.299e-9
0.344, -2.278e-9
0.343, -2.258e-9
0.342, -2.239e-9
0.341, -2.219e-9
0.340, -2.200e-9
0.339, -2.184e-9
0.338, -2.166e-9
0.337, -2.149e-9
0.336, -2.132e-9
0.335, -2.117e-9
0.334, -2.100e-9
0.333, -2.081e-9
0.332, -2.064e-9
0.331, -2.047e-9
0.330, -2.030e-9
0.329, -2.012e-9
0.328, -1.997e-9
0.327, -1.980e-9
0.326, -1.962e-9
0.325, -1.946e-9
0.324, -1.930e-9
0.323, -1.914e-9
0.322, -1.898e-9
0.321, -1.884e-9
0.320, -1.869e-9
0.319, -1.851e-9
0.318, -1.835e-9
0.317, -1.821e-9
0.316, -1.805e-9
0.315, -1.788e-9
0.314, -1.773e-9
0.313, -1.757e-9
0.312, -1.741e-9
0.311, -1.724e-9
0.310, -1.710e-9
0.309, -1.695e-9
0.308, -1.678e-9
0.307, -1.663e-9
0.306, -1.648e-9
0.305, -1.631e-9
0.304, -1.615e-9
0.303, -1.602e-9
0.302, -1.586e-9
0.301, -1.569e-9
0.300, -1.555e-9
0.299, -1.539e-9
0.298, -1.522e-9
0.297, -1.507e-9
0.296, -1.489e-9
0.295, -1.470e-9
0.294, -1.454e-9
0.293, -1.439e-9
0.292, -1.421e-9
0.291, -1.403e-9
0.290, -1.387e-9
0.289, -1.371e-9
0.288, -1.354e-9
0.287, -1.336e-9
0.286, -1.318e-9
0.285, -1.302e-9
0.284, -1.282e-9
0.283, -1.263e-9
0.282, -1.244e-9
0.281, -1.225e-9
0.280, -1.204e-9
0.279, -1.184e-9
0.278, -1.166e-9
0.277, -1.145e-9
0.276, -1.125e-9
0.275, -1.106e-9
0.274, -1.085e-9
0.273, -1.063e-9
0.272, -1.042e-9
0.271, -1.022e-9
0.270, -9.993e-10
0.269, -9.747e-10
0.268, -9.512e-10
0.267, -9.281e-10
0.266, -9.023e-10
0.265, -8.771e-10
0.264, -8.535e-10
0.263, -8.293e-10
0.262, -8.033e-10
0.261, -7.784e-10
0.260, -7.537e-10
0.259, -7.264e-10
0.258, -6.986e-10
0.257, -6.713e-10
0.256, -6.428e-10
0.255, -6.134e-10
0.254, -5.843e-10
0.253, -5.558e-10
0.252, -5.254e-10
0.251, -4.952e-10
0.250, -4.662e-10
0.249, -4.356e-10
0.248, -4.027e-10
0.247, -3.694e-10
0.246, -3.383e-10
0.245, -3.067e-10
0.244, -2.725e-10
0.243, -2.385e-10
0.242, -2.062e-10
0.241, -1.727e-10
0.240, -1.376e-10
0.239, -1.033e-10
0.238, -7.026e-11
0.237, -3.366e-11
0.236, 2.677e-12
0.235, 3.676e-11
0.234, 7.346e-11
0.233, 1.097e-10
0.232, 1.458e-10
0.231, 1.820e-10
0.230, 2.180e-10
0.229, 2.550e-10
0.228, 2.907e-10
0.227, 3.272e-10
0.226, 3.635e-10
0.225, 3.997e-10
0.224, 4.361e-10
0.223, 4.717e-10
0.222, 5.078e-10
0.221, 5.448e-10
0.220, 5.796e-10
0.219, 6.152e-10
0.218, 6.512e-10
0.217, 6.856e-10
0.216, 7.193e-10
0.215, 7.537e-10
0.214, 7.875e-10
0.213, 8.210e-10
0.212, 8.542e-10
0.211, 8.868e-10
0.210, 9.191e-10
0.209, 9.509e-10
0.208, 9.812e-10
0.207, 1.012e-9
0.206, 1.042e-9
0.205, 1.072e-9
0.204, 1.102e-9
0.203, 1.130e-9
0.202, 1.157e-9
0.201, 1.184e-9
0.200, 1.211e-9
0.199, 1.236e-9
0.198, 1.261e-9
0.197, 1.285e-9
0.196, 1.309e-9
0.195, 1.332e-9
0.194, 1.356e-9
0.193, 1.377e-9
0.192, 1.399e-9
0.191, 1.420e-9
0.190, 1.439e-9
0.189, 1.459e-9
0.188, 1.477e-9
0.187, 1.495e-9
0.186, 1.513e-9
0.185, 1.530e-9
0.184, 1.547e-9
0.183, 1.562e-9
0.182, 1.577e-9
0.181, 1.593e-9
0.180, 1.607e-9
0.179, 1.620e-9
0.178, 1.633e-9
0.177, 1.645e-9
0.176, 1.658e-9
0.175, 1.671e-9
0.174, 1.681e-9
0.173, 1.692e-9
0.172, 1.703e-9
0.171, 1.712e-9
0.170, 1.721e-9
0.169, 1.729e-9
0.168, 1.739e-9
0.167, 1.748e-9
0.166, 1.755e-9
0.165, 1.763e-9
0.164, 1.772e-9
0.163, 1.779e-9
0.162, 1.786e-9
0.161, 1.792e-9
0.160, 1.798e-9
0.159, 1.805e-9
0.158, 1.810e-9
0.157, 1.815e-9
0.156, 1.821e-9
0.155, 1.826e-9
0.154, 1.832e-9
0.153, 1.837e-9
0.152, 1.841e-9
0.151, 1.846e-9
0.150, 1.850e-9
0.149, 1.854e-9
0.148, 1.858e-9
0.147, 1.861e-9
0.146, 1.865e-9
0.145, 1.869e-9
0.144, 1.873e-9
0.143, 1.876e-9
0.142, 1.879e-9
0.141, 1.883e-9
0.140, 1.885e-9
0.139, 1.887e-9
0.138, 1.890e-9
0.137, 1.893e-9
0.136, 1.896e-9
0.135, 1.899e-9
0.134, 1.901e-9
0.133, 1.904e-9
0.132, 1.908e-9
0.131, 1.910e-9
0.130, 1.912e-9
0.129, 1.915e-9
0.128, 1.916e-9
0.127, 1.918e-9
0.126, 1.921e-9
0.125, 1.923e-9
0.124, 1.925e-9
0.123, 1.927e-9
0.122, 1.930e-9
0.121, 1.931e-9
0.120, 1.934e-9
0.119, 1.936e-9
0.118, 1.938e-9
0.117, 1.940e-9
0.116, 1.943e-9
0.115, 1.944e-9
0.114, 1.947e-9
0.113, 1.949e-9
0.112, 1.950e-9
0.111, 1.953e-9
0.110, 1.956e-9
0.109, 1.958e-9
0.108, 1.959e-9
0.107, 1.962e-9
0.106, 1.965e-9
0.105, 1.966e-9
0.104, 1.969e-9
0.103, 1.971e-9
0.102, 1.974e-9
0.101, 1.977e-9
0.100, 1.979e-9
0.099, 1.982e-9
0.098, 1.985e-9
0.097, 1.987e-9
0.096, 1.989e-9
0.095, 1.992e-9
0.094, 1.995e-9
0.093, 1.997e-9
0.092, 2.000e-9
0.091, 2.003e-9
0.090, 2.005e-9
0.089, 2.009e-9
0.088, 2.012e-9
0.087, 2.015e-9
0.086, 2.018e-9
0.085, 2.022e-9
0.084, 2.026e-9
0.083, 2.028e-9
0.082, 2.031e-9
0.081, 2.035e-9
0.080, 2.037e-9
0.079, 2.040e-9
0.078, 2.044e-9
0.077, 2.048e-9
0.076, 2.051e-9
0.075, 2.055e-9
0.074, 2.060e-9
0.073, 2.063e-9
0.072, 2.068e-9
0.071, 2.072e-9
0.070, 2.076e-9
0.069, 2.080e-9
0.068, 2.084e-9
0.067, 2.088e-9
0.066, 2.092e-9
0.065, 2.097e-9
0.064, 2.101e-9
0.063, 2.107e-9
0.062, 2.111e-9
0.061, 2.116e-9
0.060, 2.121e-9
0.059, 2.126e-9
0.058, 2.131e-9
0.057, 2.136e-9
0.056, 2.142e-9
0.055, 2.147e-9
0.054, 2.152e-9
0.053, 2.157e-9
0.052, 2.163e-9
0.051, 2.169e-9
0.050, 2.174e-9
0.049, 2.180e-9
0.048, 2.186e-9
0.047, 2.191e-9
0.046, 2.198e-9
0.045, 2.204e-9
0.044, 2.211e-9
0.043, 2.217e-9
0.042, 2.224e-9
0.041, 2.230e-9
0.040, 2.236e-9
0.039, 2.243e-9
0.038, 2.249e-9
0.037, 2.256e-9
0.036, 2.264e-9
0.035, 2.270e-9
0.034, 2.278e-9
0.033, 2.285e-9
0.032, 2.293e-9
0.031, 2.300e-9
0.030, 2.308e-9
0.029, 2.316e-9
0.028, 2.323e-9
0.027, 2.331e-9
0.026, 2.339e-9
0.025, 2.347e-9
0.024, 2.356e-9
0.023, 2.364e-9
0.022, 2.372e-9
0.021, 2.380e-9
0.020, 2.389e-9
0.019, 2.397e-9
0.018, 2.406e-9
0.017, 2.415e-9
0.016, 2.424e-9
0.015, 2.433e-9
0.014, 2.442e-9
0.013, 2.451e-9
0.012, 2.461e-9
0.011, 2.470e-9
0.010, 2.479e-9
0.009, 2.489e-9
0.008, 2.499e-9
0.007, 2.509e-9
0.006, 2.519e-9
0.005, 2.529e-9
0.004, 2.539e-9
0.003, 2.550e-9
0.002, 2.560e-9
0.001, 2.571e-9
