Results:

Channel 1:
Segment 1:

Segment 2:

Potential/V, Current/A

0.000, 1.355e-9
0.001, 1.247e-9
0.002, 1.175e-9
0.003, 1.119e-9
0.004, 1.067e-9
0.005, 1.021e-9
0.006, 9.772e-10
0.007, 9.366e-10
0.008, 8.988e-10
0.009, 8.606e-10
0.010, 8.268e-10
0.011, 7.915e-10
0.012, 7.582e-10
0.013, 7.265e-10
0.014, 6.934e-10
0.015, 6.638e-10
0.016, 6.331e-10
0.017, 6.028e-10
0.018, 5.759e-10
0.019, 5.461e-10
0.020, 5.199e-10
0.021, 4.929e-10
0.022, 4.657e-10
0.023, 4.397e-10
0.024, 4.137e-10
0.025, 3.894e-10
0.026, 3.646e-10
0.027, 3.395e-10
0.028, 3.152e-10
0.029, 2.922e-10
0.030, 2.690e-10
0.031, 2.441e-10
0.032, 2.221e-10
0.033, 1.995e-10
0.034, 1.773e-10
0.035, 1.563e-10
0.036, 1.339e-10
0.037, 1.139e-10
0.038, 9.262e-11
0.039, 7.119e-11
0.040, 5.219e-11
0.041, 3.060e-11
0.042, 1.116e-11
0.043, -7.436e-12
0.044, -2.821e-11
0.045, -4.649e-11
0.046, -6.627e-11
0.047, -8.523e-11
0.048, -1.026e-10
0.049, -1.230e-10
0.050, -1.392e-10
0.051, -1.577e-10
0.052, -1.766e-10
0.053, -1.931e-10
0.054, -2.114e-10
0.055, -2.287e-10
0.056, -2.456e-10
0.057, -2.636e-10
0.058, -2.801e-10
0.059, -2.968e-10
0.060, -3.133e-10
0.061, -3.291e-10
0.062, -3.461e-10
0.063, -3.616e-10
0.064, -3.782e-10
0.065, -3.938e-10
0.066, -4.100e-10
0.067, -4.249e-10
0.068, -4.407e-10
0.069, -4.559e-10
0.070, -4.714e-10
0.071, -4.874e-10
0.072, -5.013e-10
0.073, -5.176e-10
0.074, -5.327e-10
0.075, -5.470e-10
0.076, -5.623e-10
0.077, -5.757e-10
0.078, -5.905e-10
0.079, -6.059e-10
0.080, -6.186e-10
0.081, -6.346e-10
0.082, -6.483e-10
0.083, -6.614e-10
0.084, -6.762e-10
0.085, -6.883e-10
0.086, -7.033e-10
0.087, -7.165e-10
0.088, -7.298e-10
0.089, -7.449e-10
0.090, -7.566e-10
0.091, -7.701e-10
0.092, -7.841e-10
0.093, -7.960e-10
0.094, -8.105e-10
0.095, -8.216e-10
0.096, -8.353e-10
0.097, -8.484e-10
0.098, -8.606e-10
0.099, -8.738e-10
0.100, -8.860e-10
0.101, -8.977e-10
0.102, -9.110e-10
0.103, -9.238e-10
0.104, -9.366e-10
0.105, -9.468e-10
0.106, -9.589e-10
0.107, -9.707e-10
0.108, -9.825e-10
0.109, -9.931e-10
0.110, -1.004e-9
0.111, -1.016e-9
0.112, -1.025e-9
0.113, -1.037e-9
0.114, -1.047e-9
0.115, -1.057e-9
0.116, -1.068e-9
0.117, -1.077e-9
0.118, -1.087e-9
0.119, -1.098e-9
0.120, -1.105e-9
0.121, -1.116e-9
0.122, -1.125e-9
0.123, -1.134e-9
0.124, -1.143e-9
0.125, -1.151e-9
0.126, -1.162e-9
0.127, -1.170e-9
0.128, -1.179e-9
0.129, -1.189e-9
0.130, -1.196e-9
0.131, -1.206e-9
0.132, -1.216e-9
0.133, -1.223e-9
0.134, -1.234e-9
0.135, -1.242e-9
0.136, -1.252e-9
0.137, -1.262e-9
0.138, -1.271e-9
0.139, -1.282e-9
0.140, -1.290e-9
0.141, -1.300e-9
0.142, -1.311e-9
0.143, -1.321e-9
0.144, -1.332e-9
0.145, -1.342e-9
0.146, -1.353e-9
0.147, -1.363e-9
0.148, -1.374e-9
0.149, -1.384e-9
0.150, -1.396e-9
0.151, -1.408e-9
0.152, -1.418e-9
0.153, -1.430e-9
0.154, -1.442e-9
0.155, -1.453e-9
0.156, -1.466e-9
0.157, -1.476e-9
0.158, -1.489e-9
0.159, -1.503e-9
0.160, -1.514e-9
0.161, -1.527e-9
0.162, -1.540e-9
0.163, -1.552e-9
0.164, -1.568e-9
0.165, -1.579e-9
0.166, -1.592e-9
0.167, -1.607e-9
0.168, -1.620e-9
0.169, -1.636e-9
0.170, -1.648e-9
0.171, -1.664e-9
0.172, -1.679e-9
0.173, -1.692e-9
0.174, -1.709e-9
0.175, -1.723e-9
0.176, -1.739e-9
0.177, -1.755e-9
0.178, -1.770e-9
0.179, -1.788e-9
0.180, -1.804e-9
0.181, -1.819e-9
0.182, -1.836e-9
0.183, -1.853e-9
0.184, -1.869e-9
0.185, -1.888e-9
0.186, -1.906e-9
0.187, -1.921e-9
0.188, -1.940e-9
0.189, -1.957e-9
0.190, -1.975e-9
0.191, -1.994e-9
0.192, -2.012e-9
0.193, -2.031e-9
0.194, -2.048e-9
0.195, -2.067e-9
0.196, -2.087e-9
0.197, -2.105e-9
0.198, -2.125e-9
0.199, -2.144e-9
0.200, -2.161e-9
0.201, -2.183e-9
0.202, -2.199e-9
0.203, -2.219e-9
0.204, -2.239e-9
0.205, -2.259e-9
0.206, -2.278e-9
0.207, -2.297e-9
0.208, -2.315e-9
0.209, -2.334e-9
0.210, -2.352e-9
0.211, -2.372e-9
0.212, -2.392e-9
0.213, -2.408e-9
0.214, -2.428e-9
0.215, -2.447e-9
0.216, -2.464e-9
0.217, -2.484e-9
0.218, -2.501e-9
0.219, -2.519e-9
0.220, -2.537e-9
0.221, -2.555e-9
0.222, -2.572e-9
0.223, -2.590e-9
0.224, -2.606e-9
0.225, -2.623e-9
0.226, -2.640e-9
0.227, -2.655e-9
0.228, -2.672e-9
0.229, -2.688e-9
0.230, -2.703e-9
0.231, -2.720e-9
0.232, -2.733e-9
0.233, -2.749e-9
0.234, -2.764e-9
0.235, -2.776e-9
0.236, -2.793e-9
0.237, -2.806e-9
0.238, -2.819e-9
0.239, -2.834e-9
0.240, -2.846e-9
0.241, -2.860e-9
0.242, -2.872e-9
0.243, -2.883e-9
0.244, -2.897e-9
0.245, -2.907e-9
0.246, -2.919e-9
0.247, -2.930e-9
0.248, -2.940e-9
0.249, -2.951e-9
0.250, -2.961e-9
0.251, -2.972e-9
0.252, -2.983e-9
0.253, -2.991e-9
0.254, -3.000e-9
0.255, -3.009e-9
0.256, -3.020e-9
0.257, -3.027e-9
0.258, -3.036e-9
0.259, -3.045e-9
0.260, -3.052e-9
0.261, -3.061e-9
0.262, -3.069e-9
0.263, -3.075e-9
0.264, -3.083e-9
0.265, -3.090e-9
0.266, -3.097e-9
0.267, -3.104e-9
0.268, -3.110e-9
0.269, -3.116e-9
0.270, -3.123e-9
0.271, -3.130e-9
0.272, -3.136e-9
0.273, -3.142e-9
0.274, -3.147e-9
0.275, -3.152e-9
0.276, -3.158e-9
0.277, -3.163e-9
0.278, -3.169e-9
0.279, -3.174e-9
0.280, -3.179e-9
0.281, -3.183e-9
0.282, -3.188e-9
0.283, -3.194e-9
0.284, -3.198e-9
0.285, -3.201e-9
0.286, -3.206e-9
0.287, -3.209e-9
0.288, -3.214e-9
0.289, -3.218e-9
0.290, -3.222e-9
0.291, -3.227e-9
0.292, -3.230e-9
0.293, -3.233e-9
0.294, -3.237e-9
0.295, -3.240e-9
0.296, -3.244e-9
0.297, -3.247e-9
0.298, -3.250e-9
0.299, -3.254e-9
0.300, -3.256e-9
0.301, -3.260e-9
0.302, -3.263e-9
0.303, -3.266e-9
0.304, -3.269e-9
0.305, -3.272e-9
0.306, -3.274e-9
0.307, -3.278e-9
0.308, -3.281e-9
0.309, -3.284e-9
0.310, -3.286e-9
0.311, -3.288e-9
0.312, -3.291e-9
0.313, -3.295e-9
0.314, -3.297e-9
0.315, -3.299e-9
0.316, -3.302e-9
0.317, -3.304e-9
0.318, -3.308e-9
0.319, -3.309e-9
0.320, -3.311e-9
0.321, -3.316e-9
0.322, -3.316e-9
0.323, -3.319e-9
0.324, -3.322e-9
0.325, -3.322e-9
0.326, -3.328e-9
0.327, -3.328e-9
0.328, -3.329e-9
0.329, -3.333e-9
0.330, -3.334e-9
0.331, -3.339e-9
0.332, -3.340e-9
0.333, -3.340e-9
0.334, -3.344e-9
0.335, -3.344e-9
0.336, -3.347e-9
0.337, -3.350e-9
0.338, -3.350e-9
0.339, -3.352e-9
0.340, -3.356e-9
0.341, -3.357e-9
0.342, -3.359e-9
0.343, -3.362e-9
0.344, -3.365e-9
0.345, -3.366e-9
0.346, -3.367e-9
0.347, -3.368e-9
0.348, -3.372e-9
0.349, -3.373e-9
0.350, -3.375e-9
0.351, -3.376e-9
0.352, -3.377e-9
0.353, -3.381e-9
0.354, -3.383e-9
0.355, -3.384e-9
0.356, -3.387e-9
0.357, -3.387e-9
0.358, -3.391e-9
0.359, -3.393e-9
0.360, -3.393e-9
0.361, -3.396e-9
0.362, -3.397e-9
0.363, -3.399e-9
0.364, -3.402e-9
0.365, -3.402e-9
0.366, -3.404e-9
0.367, -3.407e-9
0.368, -3.407e-9
0.369, -3.410e-9
0.370, -3.410e-9
0.371, -3.412e-9
0.372, -3.414e-9
0.373, -3.415e-9
0.374, -3.417e-9
0.375, -3.419e-9
0.376, -3.421e-9
0.377, -3.422e-9
0.378, -3.424e-9
0.379, -3.425e-9
0.380, -3.427e-9
0.381, -3.428e-9
0.382, -3.428e-9
0.383, -3.431e-9
0.384, -3.432e-9
0.385, -3.434e-9
0.386, -3.435e-9
0.387, -3.435e-9
0.388, -3.437e-9
0.389, -3.438e-9
0.390, -3.439e-9
0.391, -3.441e-9
0.392, -3.441e-9
0.393, -3.444e-9
0.394, -3.446e-9
0.395, -3.445e-9
0.396, -3.448e-9
0.397, -3.448e-9
0.398, -3.448e-9
0.399, -3.451e-9
0.400, -3.451e-9
0.401, -3.453e-9
0.402, -3.453e-9
0.403, -3.453e-9
0.404, -3.455e-9
0.405, -3.455e-9
0.406, -3.457e-9
0.407, -3.458e-9
0.408, -3.459e-9
0.409, -3.461e-9
0.410, -3.462e-9
0.411, -3.462e-9
0.412, -3.463e-9
0.413, -3.464e-9
0.414, -3.465e-9
0.415, -3.465e-9
0.416, -3.466e-9
0.417, -3.466e-9
0.418, -3.468e-9
0.419, -3.468e-9
0.420, -3.469e-9
0.421, -3.470e-9
0.422, -3.470e-9
0.423, -3.471e-9
0.424, -3.471e-9
0.425, -3.471e-9
0.426, -3.472e-9
0.427, -3.472e-9
0.428, -3.473e-9
0.429, -3.473e-9
0.430, -3.475e-9
0.431, -3.475e-9
0.432, -3.474e-9
0.433, -3.475e-9
0.434, -3.475e-9
0.435, -3.476e-9
0.436, -3.479e-9
0.437, -3.477e-9
0.438, -3.479e-9
0.439, -3.479e-9
0.440, -3.478e-9
0.441, -3.481e-9
0.442, -3.479e-9
0.443, -3.479e-9
0.444, -3.482e-9
0.445, -3.480e-9
0.446, -3.482e-9
0.447, -3.483e-9
0.448, -3.482e-9
0.449, -3.485e-9
0.450, -3.485e-9
0.451, -3.485e-9
0.452, -3.485e-9
0.453, -3.485e-9
0.454, -3.488e-9
0.455, -3.488e-9
0.456, -3.488e-9
0.457, -3.489e-9
0.458, -3.489e-9
0.459, -3.489e-9
0.460, -3.490e-9
0.461, -3.492e-9
0.462, -3.492e-9
0.463, -3.493e-9
0.464, -3.492e-9
0.465, -3.494e-9
0.466, -3.496e-9
0.467, -3.494e-9
0.468, -3.496e-9
0.469, -3.497e-9
0.470, -3.497e-9
0.471, -3.501e-9
0.472, -3.498e-9
0.473, -3.500e-9
0.474, -3.502e-9
0.475, -3.501e-9
0.476, -3.505e-9
0.477, -3.504e-9
0.478, -3.506e-9
0.479, -3.507e-9
0.480, -3.506e-9
0.481, -3.508e-9
0.482, -3.509e-9
0.483, -3.510e-9
0.484, -3.513e-9
0.485, -3.513e-9
0.486, -3.514e-9
0.487, -3.516e-9
0.488, -3.517e-9
0.489, -3.519e-9
0.490, -3.520e-9
0.491, -3.523e-9
0.492, -3.524e-9
0.493, -3.526e-9
0.494, -3.526e-9
0.495, -3.528e-9
0.496, -3.530e-9
0.497, -3.531e-9
0.498, -3.533e-9
0.499, -3.534e-9
0.500, -3.537e-9
0.501, -3.539e-9
0.502, -3.539e-9
0.503, -3.542e-9
0.504, -3.544e-9
0.505, -3.546e-9
0.506, -3.549e-9
0.507, -3.548e-9
0.508, -3.552e-9
0.509, -3.553e-9
0.510, -3.555e-9
0.511, -3.559e-9
0.512, -3.560e-9
0.513, -3.563e-9
0.514, -3.566e-9
0.515, -3.567e-9
0.516, -3.571e-9
0.517, -3.571e-9
0.518, -3.574e-9
0.519, -3.578e-9
0.520, -3.580e-9
0.521, -3.583e-9
0.522, -3.585e-9
0.523, -3.589e-9
0.524, -3.590e-9
0.525, -3.593e-9
0.526, -3.597e-9
0.527, -3.599e-9
0.528, -3.602e-9
0.529, -3.605e-9
0.530, -3.607e-9
0.531, -3.612e-9
0.532, -3.614e-9
0.533, -3.618e-9
0.534, -3.621e-9
0.535, -3.624e-9
0.536, -3.628e-9
0.537, -3.630e-9
0.538, -3.634e-9
0.539, -3.639e-9
0.540, -3.641e-9
0.541, -3.644e-9
0.542, -3.648e-9
0.543, -3.651e-9
0.544, -3.655e-9
0.545, -3.658e-9
0.546, -3.663e-9
0.547, -3.666e-9
0.548, -3.670e-9
0.549, -3.674e-9
0.550, -3.678e-9
0.551, -3.684e-9
0.552, -3.687e-9
0.553, -3.691e-9
0.554, -3.695e-9
0.555, -3.700e-9
0.556, -3.703e-9
0.557, -3.707e-9
0.558, -3.713e-9
0.559, -3.717e-9
0.560, -3.720e-9
0.561, -3.726e-9
0.562, -3.729e-9
0.563, -3.735e-9
0.564, -3.740e-9
0.565, -3.745e-9
0.566, -3.750e-9
0.567, -3.753e-9
0.568, -3.759e-9
0.569, -3.764e-9
0.570, -3.769e-9
0.571, -3.774e-9
0.572, -3.779e-9
0.573, -3.785e-9
0.574, -3.790e-9
0.575, -3.796e-9
0.576, -3.801e-9
0.577, -3.805e-9
0.578, -3.811e-9
0.579, -3.817e-9
0.580, -3.823e-9
0.581, -3.830e-9
0.582, -3.834e-9
0.583, -3.841e-9
0.584, -3.845e-9
0.585, -3.852e-9
0.586, -3.859e-9
0.587, -3.863e-9
0.588, -3.871e-9
0.589, -3.875e-9
0.590, -3.882e-9
0.591, -3.890e-9
0.592, -3.896e-9
0.593, -3.904e-9
0.594, -3.909e-9
0.595, -3.915e-9
0.596, -3.923e-9
0.597, -3.928e-9
0.598, -3.938e-9
0.599, -3.945e-9
0.600, -3.949e-9
0.601, -3.959e-9
0.602, -3.964e-9
0.603, -3.972e-9
0.604, -3.981e-9
0.605, -3.987e-9
0.606, -3.997e-9
0.607, -4.002e-9
0.608, -4.011e-9
0.609, -4.019e-9
0.610, -4.025e-9
0.611, -4.034e-9
0.612, -4.042e-9
0.613, -4.049e-9
0.614, -4.059e-9
0.615, -4.068e-9
0.616, -4.075e-9
0.617, -4.084e-9
0.618, -4.092e-9
0.619, -4.100e-9
0.620, -4.110e-9
0.621, -4.117e-9
0.622, -4.126e-9
0.623, -4.137e-9
0.624, -4.144e-9
0.625, -4.153e-9
0.626, -4.162e-9
0.627, -4.170e-9
0.628, -4.182e-9
0.629, -4.191e-9
0.630, -4.199e-9
0.631, -4.210e-9
0.632, -4.218e-9
0.633, -4.230e-9
0.634, -4.240e-9
0.635, -4.248e-9
0.636, -4.259e-9
0.637, -4.268e-9
0.638, -4.278e-9
0.639, -4.289e-9
0.640, -4.298e-9
0.641, -4.309e-9
0.642, -4.319e-9
0.643, -4.330e-9
0.644, -4.342e-9
0.645, -4.353e-9
0.646, -4.363e-9
0.647, -4.374e-9
0.648, -4.386e-9
0.649, -4.398e-9
0.650, -4.408e-9
0.651, -4.420e-9
0.652, -4.432e-9
0.653, -4.443e-9
0.654, -4.455e-9
0.655, -4.466e-9
0.656, -4.477e-9
0.657, -4.490e-9
0.658, -4.504e-9
0.659, -4.515e-9
0.660, -4.527e-9
0.661, -4.538e-9
0.662, -4.550e-9
0.663, -4.564e-9
0.664, -4.576e-9
0.665, -4.589e-9
0.666, -4.600e-9
0.667, -4.612e-9
0.668, -4.626e-9
0.669, -4.638e-9
0.670, -4.651e-9
0.671, -4.664e-9
0.672, -4.677e-9
0.673, -4.691e-9
0.674, -4.702e-9
0.675, -4.717e-9
0.676, -4.731e-9
0.677, -4.742e-9
0.678, -4.758e-9
0.679, -4.772e-9
0.680, -4.784e-9
0.681, -4.798e-9
0.682, -4.810e-9
0.683, -4.826e-9
0.684, -4.839e-9
0.685, -4.851e-9
0.686, -4.868e-9
0.687, -4.880e-9
0.688, -4.893e-9
0.689, -4.909e-9
0.690, -4.921e-9
0.691, -4.935e-9
0.692, -4.950e-9
0.693, -4.964e-9
0.694, -4.979e-9
0.695, -4.994e-9
0.696, -5.008e-9
0.697, -5.022e-9
0.698, -5.037e-9
0.699, -5.053e-9
0.700, -5.068e-9
0.701, -5.082e-9
0.702, -5.097e-9
0.703, -5.112e-9
0.704, -5.125e-9
0.705, -5.141e-9
0.706, -5.156e-9
0.707, -5.170e-9
0.708, -5.187e-9
0.709, -5.201e-9
0.710, -5.218e-9
0.711, -5.234e-9
0.712, -5.245e-9
0.713, -5.264e-9
0.714, -5.279e-9
0.715, -5.294e-9
0.716, -5.312e-9
0.717, -5.326e-9
0.718, -5.342e-9
0.719, -5.361e-9
0.720, -5.374e-9
0.721, -5.391e-9
0.722, -5.405e-9
0.723, -5.424e-9
0.724, -5.440e-9
0.725, -5.455e-9
0.726, -5.472e-9
0.727, -5.490e-9
0.728, -5.505e-9
0.729, -5.520e-9
0.730, -5.537e-9
0.731, -5.554e-9
0.732, -5.568e-9
0.733, -5.586e-9
0.734, -5.603e-9
0.735, -5.619e-9
0.736, -5.636e-9
0.737, -5.652e-9
0.738, -5.669e-9
0.739, -5.685e-9
0.740, -5.702e-9
0.741, -5.720e-9
0.742, -5.736e-9
0.743, -5.754e-9
0.744, -5.771e-9
0.745, -5.787e-9
0.746, -5.806e-9
0.747, -5.822e-9
0.748, -5.840e-9
0.749, -5.858e-9
0.750, -5.875e-9
0.751, -5.894e-9
0.752, -5.907e-9
0.753, -5.924e-9
0.754, -5.944e-9
0.755, -5.961e-9
0.756, -5.980e-9
0.757, -5.998e-9
0.758, -6.015e-9
0.759, -6.032e-9
0.760, -6.049e-9
0.761, -6.065e-9
0.762, -6.082e-9
0.763, -6.101e-9
0.764, -6.119e-9
0.765, -6.138e-9
0.766, -6.154e-9
0.767, -6.171e-9
0.768, -6.190e-9
0.769, -6.207e-9
0.770, -6.224e-9
0.771, -6.244e-9
0.772, -6.260e-9
0.773, -6.277e-9
0.774, -6.296e-9
0.775, -6.315e-9
0.776, -6.333e-9
0.777, -6.350e-9
0.778, -6.370e-9
0.779, -6.387e-9
0.780, -6.405e-9
0.781, -6.423e-9
0.782, -6.441e-9
0.783, -6.460e-9
0.784, -6.477e-9
0.785, -6.497e-9
0.786, -6.515e-9
0.787, -6.533e-9
0.788, -6.553e-9
0.789, -6.568e-9
0.790, -6.586e-9
0.791, -6.607e-9
0.792, -6.623e-9
0.793, -6.645e-9
0.794, -6.663e-9
0.795, -6.681e-9
0.796, -6.701e-9
0.797, -6.718e-9
0.798, -6.738e-9
0.799, -6.755e-9
0.800, -6.682e-9
0.799, -6.428e-9
0.798, -6.253e-9
0.797, -6.114e-9
0.796, -5.992e-9
0.795, -5.879e-9
0.794, -5.777e-9
0.793, -5.680e-9
0.792, -5.589e-9
0.791, -5.505e-9
0.790, -5.422e-9
0.789, -5.343e-9
0.788, -5.266e-9
0.787, -5.193e-9
0.786, -5.118e-9
0.785, -5.050e-9
0.784, -4.983e-9
0.783, -4.917e-9
0.782, -4.854e-9
0.781, -4.790e-9
0.780, -4.729e-9
0.779, -4.671e-9
0.778, -4.612e-9
0.777, -4.557e-9
0.776, -4.501e-9
0.775, -4.446e-9
0.774, -4.394e-9
0.773, -4.339e-9
0.772, -4.287e-9
0.771, -4.238e-9
0.770, -4.189e-9
0.769, -4.141e-9
0.768, -4.091e-9
0.767, -4.045e-9
0.766, -4.000e-9
0.765, -3.954e-9
0.764, -3.909e-9
0.763, -3.864e-9
0.762, -3.822e-9
0.761, -3.778e-9
0.760, -3.736e-9
0.759, -3.694e-9
0.758, -3.653e-9
0.757, -3.615e-9
0.756, -3.573e-9
0.755, -3.534e-9
0.754, -3.497e-9
0.753, -3.458e-9
0.752, -3.422e-9
0.751, -3.384e-9
0.750, -3.350e-9
0.749, -3.314e-9
0.748, -3.276e-9
0.747, -3.243e-9
0.746, -3.209e-9
0.745, -3.174e-9
0.744, -3.139e-9
0.743, -3.106e-9
0.742, -3.074e-9
0.741, -3.039e-9
0.740, -3.008e-9
0.739, -2.978e-9
0.738, -2.944e-9
0.737, -2.914e-9
0.736, -2.881e-9
0.735, -2.850e-9
0.734, -2.819e-9
0.733, -2.788e-9
0.732, -2.760e-9
0.731, -2.731e-9
0.730, -2.701e-9
0.729, -2.672e-9
0.728, -2.642e-9
0.727, -2.614e-9
0.726, -2.586e-9
0.725, -2.557e-9
0.724, -2.530e-9
0.723, -2.502e-9
0.722, -2.477e-9
0.721, -2.449e-9
0.720, -2.421e-9
0.719, -2.395e-9
0.718, -2.369e-9
0.717, -2.344e-9
0.716, -2.318e-9
0.715, -2.292e-9
0.714, -2.268e-9
0.713, -2.245e-9
0.712, -2.222e-9
0.711, -2.197e-9
0.710, -2.174e-9
0.709, -2.149e-9
0.708, -2.125e-9
0.707, -2.103e-9
0.706, -2.078e-9
0.705, -2.058e-9
0.704, -2.033e-9
0.703, -2.009e-9
0.702, -1.990e-9
0.701, -1.965e-9
0.700, -1.944e-9
0.699, -1.924e-9
0.698, -1.903e-9
0.697, -1.885e-9
0.696, -1.861e-9
0.695, -1.838e-9
0.694, -1.818e-9
0.693, -1.794e-9
0.692, -1.775e-9
0.691, -1.755e-9
0.690, -1.733e-9
0.689, -1.715e-9
0.688, -1.694e-9
0.687, -1.674e-9
0.686, -1.656e-9
0.685, -1.637e-9
0.684, -1.617e-9
0.683, -1.598e-9
0.682, -1.579e-9
0.681, -1.560e-9
0.680, -1.543e-9
0.679, -1.524e-9
0.678, -1.507e-9
0.677, -1.487e-9
0.676, -1.468e-9
0.675, -1.451e-9
0.674, -1.433e-9
0.673, -1.414e-9
0.672, -1.399e-9
0.671, -1.381e-9
0.670, -1.366e-9
0.669, -1.347e-9
0.668, -1.330e-9
0.667, -1.314e-9
0.666, -1.297e-9
0.665, -1.280e-9
0.664, -1.264e-9
0.663, -1.247e-9
0.662, -1.231e-9
0.661, -1.215e-9
0.660, -1.199e-9
0.659, -1.184e-9
0.658, -1.166e-9
0.657, -1.151e-9
0.656, -1.136e-9
0.655, -1.121e-9
0.654, -1.106e-9
0.653, -1.088e-9
0.652, -1.073e-9
0.651, -1.060e-9
0.650, -1.045e-9
0.649, -1.029e-9
0.648, -1.014e-9
0.647, -9.998e-10
0.646, -9.859e-10
0.645, -9.726e-10
0.644, -9.586e-10
0.643, -9.431e-10
0.642, -9.288e-10
0.641, -9.134e-10
0.640, -8.998e-10
0.639, -8.853e-10
0.638, -8.733e-10
0.637, -8.609e-10
0.636, -8.463e-10
0.635, -8.339e-10
0.634, -8.202e-10
0.633, -8.072e-10
0.632, -7.951e-10
0.631, -7.811e-10
0.630, -7.698e-10
0.629, -7.555e-10
0.628, -7.419e-10
0.627, -7.325e-10
0.626, -7.187e-10
0.625, -7.058e-10
0.624, -6.941e-10
0.623, -6.798e-10
0.622, -6.691e-10
0.621, -6.557e-10
0.620, -6.435e-10
0.619, -6.318e-10
0.618, -6.190e-10
0.617, -6.089e-10
0.616, -5.968e-10
0.615, -5.840e-10
0.614, -5.722e-10
0.613, -5.596e-10
0.612, -5.487e-10
0.611, -5.390e-10
0.610, -5.271e-10
0.609, -5.161e-10
0.608, -5.046e-10
0.607, -4.923e-10
0.606, -4.816e-10
0.605, -4.718e-10
0.604, -4.600e-10
0.603, -4.501e-10
0.602, -4.397e-10
0.601, -4.289e-10
0.600, -4.191e-10
0.599, -4.075e-10
0.598, -3.970e-10
0.597, -3.873e-10
0.596, -3.760e-10
0.595, -3.670e-10
0.594, -3.551e-10
0.593, -3.447e-10
0.592, -3.372e-10
0.591, -3.257e-10
0.590, -3.178e-10
0.589, -3.077e-10
0.588, -2.954e-10
0.587, -2.888e-10
0.586, -2.780e-10
0.585, -2.683e-10
0.584, -2.592e-10
0.583, -2.488e-10
0.582, -2.398e-10
0.581, -2.301e-10
0.580, -2.219e-10
0.579, -2.132e-10
0.578, -2.017e-10
0.577, -1.947e-10
0.576, -1.852e-10
0.575, -1.758e-10
0.574, -1.677e-10
0.573, -1.582e-10
0.572, -1.500e-10
0.571, -1.417e-10
0.570, -1.348e-10
0.569, -1.264e-10
0.568, -1.175e-10
0.567, -1.093e-10
0.566, -1.002e-10
0.565, -9.093e-11
0.564, -8.346e-11
0.563, -7.563e-11
0.562, -6.754e-11
0.561, -5.938e-11
0.560, -5.294e-11
0.559, -4.326e-11
0.558, -3.649e-11
0.557, -2.928e-11
0.556, -2.155e-11
0.555, -1.370e-11
0.554, -5.104e-12
0.553, 2.299e-12
0.552, 8.629e-12
0.551, 1.728e-11
0.550, 2.418e-11
0.549, 3.156e-11
0.548, 3.913e-11
0.547, 4.469e-11
0.546, 5.455e-11
0.545, 6.118e-11
0.544, 6.902e-11
0.543, 7.705e-11
0.542, 8.193e-11
0.541, 8.979e-11
0.540, 9.698e-11
0.539, 1.026e-10
0.538, 1.102e-10
0.537, 1.167e-10
0.536, 1.232e-10
0.535, 1.308e-10
0.534, 1.374e-10
0.533, 1.450e-10
0.532, 1.515e-10
0.531, 1.582e-10
0.530, 1.635e-10
0.529, 1.684e-10
0.528, 1.750e-10
0.527, 1.808e-10
0.526, 1.878e-10
0.525, 1.945e-10
0.524, 2.012e-10
0.523, 2.074e-10
0.522, 2.130e-10
0.521, 2.204e-10
0.520, 2.266e-10
0.519, 2.327e-10
0.518, 2.377e-10
0.517, 2.434e-10
0.516, 2.507e-10
0.515, 2.554e-10
0.514, 2.620e-10
0.513, 2.684e-10
0.512, 2.739e-10
0.511, 2.801e-10
0.510, 2.837e-10
0.509, 2.888e-10
0.508, 2.951e-10
0.507, 2.994e-10
0.506, 3.058e-10
0.505, 3.103e-10
0.504, 3.156e-10
0.503, 3.229e-10
0.502, 3.271e-10
0.501, 3.335e-10
0.500, 3.381e-10
0.499, 3.426e-10
0.498, 3.497e-10
0.497, 3.528e-10
0.496, 3.591e-10
0.495, 3.647e-10
0.494, 3.679e-10
0.493, 3.738e-10
0.492, 3.794e-10
0.491, 3.837e-10
0.490, 3.895e-10
0.489, 3.934e-10
0.488, 3.982e-10
0.487, 4.029e-10
0.486, 4.076e-10
0.485, 4.116e-10
0.484, 4.166e-10
0.483, 4.212e-10
0.482, 4.269e-10
0.481, 4.326e-10
0.480, 4.370e-10
0.479, 4.432e-10
0.478, 4.468e-10
0.477, 4.500e-10
0.476, 4.549e-10
0.475, 4.577e-10
0.474, 4.622e-10
0.473, 4.673e-10
0.472, 4.704e-10
0.471, 4.747e-10
0.470, 4.790e-10
0.469, 4.831e-10
0.468, 4.873e-10
0.467, 4.900e-10
0.466, 4.953e-10
0.465, 4.989e-10
0.464, 5.032e-10
0.463, 5.084e-10
0.462, 5.115e-10
0.461, 5.170e-10
0.460, 5.201e-10
0.459, 5.229e-10
0.458, 5.280e-10
0.457, 5.302e-10
0.456, 5.351e-10
0.455, 5.393e-10
0.454, 5.419e-10
0.453, 5.460e-10
0.452, 5.498e-10
0.451, 5.538e-10
0.450, 5.570e-10
0.449, 5.602e-10
0.448, 5.645e-10
0.447, 5.680e-10
0.446, 5.721e-10
0.445, 5.768e-10
0.444, 5.803e-10
0.443, 5.830e-10
0.442, 5.850e-10
0.441, 5.896e-10
0.440, 5.931e-10
0.439, 5.963e-10
0.438, 6.008e-10
0.437, 6.039e-10
0.436, 6.084e-10
0.435, 6.107e-10
0.434, 6.149e-10
0.433, 6.178e-10
0.432, 6.200e-10
0.431, 6.240e-10
0.430, 6.274e-10
0.429, 6.301e-10
0.428, 6.339e-10
0.427, 6.357e-10
0.426, 6.398e-10
0.425, 6.422e-10
0.424, 6.460e-10
0.423, 6.503e-10
0.422, 6.515e-10
0.421, 6.557e-10
0.420, 6.576e-10
0.419, 6.595e-10
0.418, 6.635e-10
0.417, 6.647e-10
0.416, 6.683e-10
0.415, 6.719e-10
0.414, 6.743e-10
0.413, 6.786e-10
0.412, 6.806e-10
0.411, 6.838e-10
0.410, 6.869e-10
0.409, 6.902e-10
0.408, 6.929e-10
0.407, 6.956e-10
0.406, 6.978e-10
0.405, 7.013e-10
0.404, 7.043e-10
0.403, 7.073e-10
0.402, 7.107e-10
0.401, 7.139e-10
0.400, 7.162e-10
0.399, 7.191e-10
0.398, 7.218e-10
0.397, 7.247e-10
0.396, 7.280e-10
0.395, 7.282e-10
0.394, 7.310e-10
0.393, 7.333e-10
0.392, 7.348e-10
0.391, 7.391e-10
0.390, 7.405e-10
0.389, 7.442e-10
0.388, 7.472e-10
0.387, 7.476e-10
0.386, 7.516e-10
0.385, 7.532e-10
0.384, 7.554e-10
0.383, 7.602e-10
0.382, 7.609e-10
0.381, 7.650e-10
0.380, 7.676e-10
0.379, 7.687e-10
0.378, 7.722e-10
0.377, 7.737e-10
0.376, 7.774e-10
0.375, 7.794e-10
0.374, 7.814e-10
0.373, 7.850e-10
0.372, 7.873e-10
0.371, 7.895e-10
0.370, 7.923e-10
0.369, 7.945e-10
0.368, 7.974e-10
0.367, 7.999e-10
0.366, 8.025e-10
0.365, 8.043e-10
0.364, 8.078e-10
0.363, 8.098e-10
0.362, 8.120e-10
0.361, 8.145e-10
0.360, 8.156e-10
0.359, 8.203e-10
0.358, 8.219e-10
0.357, 8.235e-10
0.356, 8.269e-10
0.355, 8.268e-10
0.354, 8.315e-10
0.353, 8.348e-10
0.352, 8.360e-10
0.351, 8.406e-10
0.350, 8.415e-10
0.349, 8.449e-10
0.348, 8.474e-10
0.347, 8.486e-10
0.346, 8.528e-10
0.345, 8.549e-10
0.344, 8.571e-10
0.343, 8.609e-10
0.342, 8.611e-10
0.341, 8.644e-10
0.340, 8.669e-10
0.339, 8.700e-10
0.338, 8.738e-10
0.337, 8.755e-10
0.336, 8.792e-10
0.335, 8.820e-10
0.334, 8.839e-10
0.333, 8.864e-10
0.332, 8.896e-10
0.331, 8.935e-10
0.330, 8.965e-10
0.329, 8.990e-10
0.328, 9.015e-10
0.327, 9.044e-10
0.326, 9.077e-10
0.325, 9.103e-10
0.324, 9.142e-10
0.323, 9.170e-10
0.322, 9.201e-10
0.321, 9.238e-10
0.320, 9.266e-10
0.319, 9.317e-10
0.318, 9.334e-10
0.317, 9.373e-10
0.316, 9.419e-10
0.315, 9.444e-10
0.314, 9.498e-10
0.313, 9.532e-10
0.312, 9.562e-10
0.311, 9.617e-10
0.310, 9.638e-10
0.309, 9.690e-10
0.308, 9.735e-10
0.307, 9.770e-10
0.306, 9.829e-10
0.305, 9.852e-10
0.304, 9.911e-10
0.303, 9.966e-10
0.302, 9.998e-10
0.301, 1.007e-9
0.300, 1.011e-9
0.299, 1.014e-9
0.298, 1.021e-9
0.297, 1.025e-9
0.296, 1.031e-9
0.295, 1.037e-9
0.294, 1.042e-9
0.293, 1.048e-9
0.292, 1.053e-9
0.291, 1.058e-9
0.290, 1.064e-9
0.289, 1.070e-9
0.288, 1.076e-9
0.287, 1.082e-9
0.286, 1.089e-9
0.285, 1.095e-9
0.284, 1.103e-9
0.283, 1.108e-9
0.282, 1.116e-9
0.281, 1.123e-9
0.280, 1.128e-9
0.279, 1.138e-9
0.278, 1.145e-9
0.277, 1.153e-9
0.276, 1.163e-9
0.275, 1.169e-9
0.274, 1.179e-9
0.273, 1.187e-9
0.272, 1.195e-9
0.271, 1.206e-9
0.270, 1.214e-9
0.269, 1.224e-9
0.268, 1.233e-9
0.267, 1.241e-9
0.266, 1.252e-9
0.265, 1.260e-9
0.264, 1.271e-9
0.263, 1.282e-9
0.262, 1.293e-9
0.261, 1.305e-9
0.260, 1.315e-9
0.259, 1.326e-9
0.258, 1.338e-9
0.257, 1.350e-9
0.256, 1.363e-9
0.255, 1.376e-9
0.254, 1.389e-9
0.253, 1.402e-9
0.252, 1.414e-9
0.251, 1.427e-9
0.250, 1.440e-9
0.249, 1.454e-9
0.248, 1.469e-9
0.247, 1.484e-9
0.246, 1.497e-9
0.245, 1.513e-9
0.244, 1.528e-9
0.243, 1.543e-9
0.242, 1.559e-9
0.241, 1.574e-9
0.240, 1.589e-9
0.239, 1.606e-9
0.238, 1.621e-9
0.237, 1.638e-9
0.236, 1.656e-9
0.235, 1.671e-9
0.234, 1.689e-9
0.233, 1.704e-9
0.232, 1.722e-9
0.231, 1.740e-9
0.230, 1.755e-9
0.229, 1.775e-9
0.228, 1.791e-9
0.227, 1.809e-9
0.226, 1.829e-9
0.225, 1.845e-9
0.224, 1.864e-9
0.223, 1.883e-9
0.222, 1.900e-9
0.221, 1.919e-9
0.220, 1.936e-9
0.219, 1.953e-9
0.218, 1.972e-9
0.217, 1.989e-9
0.216, 2.008e-9
0.215, 2.026e-9
0.214, 2.043e-9
0.213, 2.061e-9
0.212, 2.078e-9
0.211, 2.096e-9
0.210, 2.114e-9
0.209, 2.131e-9
0.208, 2.149e-9
0.207, 2.167e-9
0.206, 2.182e-9
0.205, 2.200e-9
0.204, 2.219e-9
0.203, 2.233e-9
0.202, 2.250e-9
0.201, 2.266e-9
0.200, 2.282e-9
0.199, 2.300e-9
0.198, 2.314e-9
0.197, 2.329e-9
0.196, 2.346e-9
0.195, 2.358e-9
0.194, 2.375e-9
0.193, 2.388e-9
0.192, 2.402e-9
0.191, 2.419e-9
0.190, 2.431e-9
0.189, 2.446e-9
0.188, 2.460e-9
0.187, 2.472e-9
0.186, 2.486e-9
0.185, 2.498e-9
0.184, 2.512e-9
0.183, 2.526e-9
0.182, 2.536e-9
0.181, 2.549e-9
0.180, 2.561e-9
0.179, 2.573e-9
0.178, 2.585e-9
0.177, 2.597e-9
0.176, 2.608e-9
0.175, 2.619e-9
0.174, 2.629e-9
0.173, 2.639e-9
0.172, 2.651e-9
0.171, 2.661e-9
0.170, 2.671e-9
0.169, 2.682e-9
0.168, 2.690e-9
0.167, 2.700e-9
0.166, 2.710e-9
0.165, 2.720e-9
0.164, 2.729e-9
0.163, 2.737e-9
0.162, 2.747e-9
0.161, 2.755e-9
0.160, 2.763e-9
0.159, 2.773e-9
0.158, 2.780e-9
0.157, 2.789e-9
0.156, 2.797e-9
0.155, 2.805e-9
0.154, 2.814e-9
0.153, 2.822e-9
0.152, 2.829e-9
0.151, 2.837e-9
0.150, 2.844e-9
0.149, 2.852e-9
0.148, 2.859e-9
0.147, 2.865e-9
0.146, 2.874e-9
0.145, 2.879e-9
0.144, 2.888e-9
0.143, 2.895e-9
0.142, 2.902e-9
0.141, 2.909e-9
0.140, 2.914e-9
0.139, 2.921e-9
0.138, 2.928e-9
0.137, 2.935e-9
0.136, 2.943e-9
0.135, 2.948e-9
0.134, 2.954e-9
0.133, 2.960e-9
0.132, 2.966e-9
0.131, 2.973e-9
0.130, 2.979e-9
0.129, 2.986e-9
0.128, 2.991e-9
0.127, 2.998e-9
0.126, 3.003e-9
0.125, 3.009e-9
0.124, 3.015e-9
0.123, 3.021e-9
0.122, 3.027e-9
0.121, 3.034e-9
0.120, 3.039e-9
0.119, 3.045e-9
0.118, 3.050e-9
0.117, 3.056e-9
0.116, 3.063e-9
0.115, 3.068e-9
0.114, 3.075e-9
0.113, 3.080e-9
0.112, 3.085e-9
0.111, 3.091e-9
0.110, 3.096e-9
0.109, 3.103e-9
0.108, 3.108e-9
0.107, 3.114e-9
0.106, 3.119e-9
0.105, 3.124e-9
0.104, 3.131e-9
0.103, 3.136e-9
0.102, 3.142e-9
0.101, 3.149e-9
0.100, 3.153e-9
0.099, 3.159e-9
0.098, 3.164e-9
0.097, 3.169e-9
0.096, 3.177e-9
0.095, 3.181e-9
0.094, 3.186e-9
0.093, 3.193e-9
0.092, 3.197e-9
0.091, 3.204e-9
0.090, 3.209e-9
0.089, 3.214e-9
0.088, 3.220e-9
0.087, 3.226e-9
0.086, 3.231e-9
0.085, 3.237e-9
0.084, 3.243e-9
0.083, 3.248e-9
0.082, 3.253e-9
0.081, 3.259e-9
0.080, 3.264e-9
0.079, 3.270e-9
0.078, 3.275e-9
0.077, 3.282e-9
0.076, 3.288e-9
0.075, 3.292e-9
0.074, 3.300e-9
0.073, 3.304e-9
0.072, 3.309e-9
0.071, 3.317e-9
0.070, 3.321e-9
0.069, 3.328e-9
0.068, 3.333e-9
0.067, 3.338e-9
0.066, 3.346e-9
0.065, 3.350e-9
0.064, 3.357e-9
0.063, 3.364e-9
0.062, 3.367e-9
0.061, 3.375e-9
0.060, 3.380e-9
0.059, 3.387e-9
0.058, 3.393e-9
0.057, 3.399e-9
0.056, 3.405e-9
0.055, 3.410e-9
0.054, 3.416e-9
0.053, 3.422e-9
0.052, 3.429e-9
0.051, 3.435e-9
0.050, 3.440e-9
0.049, 3.447e-9
0.048, 3.453e-9
0.047, 3.458e-9
0.046, 3.464e-9
0.045, 3.470e-9
0.044, 3.477e-9
0.043, 3.482e-9
0.042, 3.489e-9
0.041, 3.495e-9
0.040, 3.500e-9
0.039, 3.508e-9
0.038, 3.512e-9
0.037, 3.519e-9
0.036, 3.526e-9
0.035, 3.530e-9
0.034, 3.538e-9
0.033, 3.543e-9
0.032, 3.549e-9
0.031, 3.557e-9
0.030, 3.561e-9
0.029, 3.568e-9
0.028, 3.574e-9
0.027, 3.580e-9
0.026, 3.587e-9
0.025, 3.592e-9
0.024, 3.599e-9
0.023, 3.606e-9
0.022, 3.610e-9
0.021, 3.618e-9
0.020, 3.623e-9
0.019, 3.630e-9
0.018, 3.636e-9
0.017, 3.642e-9
0.016, 3.649e-9
0.015, 3.654e-9
0.014, 3.661e-9
0.013, 3.667e-9
0.012, 3.673e-9
0.011, 3.680e-9
0.010, 3.685e-9
0.009, 3.692e-9
0.008, 3.697e-9
0.007, 3.703e-9
0.006, 3.711e-9
0.005, 3.717e-9
0.004, 3.723e-9
0.003, 3.728e-9
0.002, 3.734e-9
0.001, 3.742e-9
